x,Img+Prioception (Cartesian Increment)_mean,Img+Prioception (Cartesian Increment)_stderr,Img+Prioception (Velocity)_mean,Img+Prioception (Velocity)_stderr,Img+Prioception (Position Increment)_mean,Img+Prioception (Position Increment)_stderr,Img+Prioception (Torque)_mean,Img+Prioception (Torque)_stderr
95590.4,2.0098452106118203,0.09641401475086378,1.356880933046341,0.11344932547621246,1.3507949595650037,0.0659647246642692,0.4745547587898645,0.09239602772903596
245811.19999999998,3.260814012799944,0.10307252820881269,3.0962013585226877,0.039393163131451976,2.93411043712071,0.17524729765332156,1.542870511327471,0.0457136481260272
396032.0,4.851007097959519,0.2587916061340801,4.052360575539725,0.20567439236840118,4.140116773332868,0.2694394503133074,1.96376576423645,0.06329097796585052
546252.7999999999,6.040210151672364,0.5108716951011739,5.398847091197967,0.5387550284379986,5.38560026884079,0.3922937246414059,2.1733034491539,0.08754055909841921
696473.6,7.272728157043457,0.8035660881601245,6.90878211430141,0.6888102926025651,6.744644233158657,0.5066112512615882,2.524275841031756,0.10229630486864506
846694.3999999999,8.228324902057647,0.9705457348584806,8.04161137172154,0.8793074796677918,7.759672042301723,0.6181850831175066,3.0778914724077495,0.11921835170151164
996915.2,9.109350490570069,0.8859246669258243,8.846577608585358,0.8668675416351901,8.856123924255371,0.5158850630005047,3.1662341833114622,0.1539721355043558
1147136.0,9.638892895834786,0.8160659169533937,9.372836562565393,0.7529039070037478,9.572965976170131,0.2583675462933431,3.549184267861502,0.16432378409802825
1297356.7999999998,10.43498260974884,0.42614178138700815,9.871410342625209,0.516147592848057,9.91293136051723,0.19063723219446582,3.7567715576716836,0.18649389807595537
1447577.6,10.698516110011509,0.25235767219516003,10.148199248313905,0.3403971010327132,10.272512102127076,0.09509540770893628,3.9337567329406737,0.15855208331317333
1597798.4,11.053634234837123,0.1491928163191359,10.30812473297119,0.1551351655937177,10.390501185825894,0.0921700047796424,4.042269080025809,0.13661258576516386
1748019.1999999997,11.130502104759216,0.08573332318875992,10.471005412510461,0.13347374130752998,10.461483573913574,0.07578677149208074,4.237604836055211,0.12834162286863265
1898240.0,11.215569741385323,0.07924848906068206,10.519689226150513,0.158420008435773,10.560938000679016,0.07542551944545908,4.335364735126495,0.07409269841319083
2048460.7999999998,11.317934363228934,0.04084053816799176,10.577141734531947,0.11083587211683478,10.717177145821708,0.03874508800530106,4.344927699225289,0.08509757532656059
2198681.5999999996,11.398121237754822,0.024227492837273466,10.614545277186803,0.11097355704043899,10.642444528852192,0.056761239629556065,4.293659687042236,0.14717525273653764
2348902.4,11.373060362679619,0.05641606647885055,10.714276146888732,0.07364766277857396,10.740103268623352,0.08117010648371219,4.294406563043594,0.17777211556325703
2499123.1999999997,11.43252672467913,0.033397917976167216,10.702386420113701,0.0414839522692558,10.689350891113282,0.0599853071908147,4.321951702662877,0.1825761867480804
2649344.0,11.49258632659912,0.026674751359562543,10.756213651384625,0.0715748716690638,10.663372039794922,0.0646288052584505,4.43520073890686,0.13456730670691397
2799564.8,11.429316329956055,0.047998828298342094,10.780865025520324,0.033224804582929965,10.780228781700135,0.06092992637367619,4.474859714508057,0.1076365649706913
2949785.5999999996,11.416910907200403,0.05144665763581529,10.895530618940082,0.05207105357763029,10.721486309596472,0.048360420117448816,4.446180827277047,0.09270039905794623
3100006.4,11.46306312084198,0.05484587367040592,10.916918809073312,0.0921005160151281,10.719115911211286,0.06776676836809076,4.334248106820243,0.15777168793134877
3250227.1999999997,11.458249146597726,0.022473289712210364,10.962200903892517,0.054767756615198004,10.812850689888,0.09442563734931685,4.337656384706497,0.14426876660603713
3400448.0,11.503844152178084,0.04302670426017602,10.927010835920061,0.04179831993886885,10.681150436401365,0.08121440454809913,4.255607557296753,0.14799226711988298
3550668.8,11.597515320777893,0.02110559854377865,10.923476437159945,0.056837752082366855,10.835968780517577,0.07802272665541873,4.440270859854562,0.1291590292694668
3700889.5999999996,11.557467133658273,0.04538028586231424,10.9023312159947,0.04468526084691863,10.881421661376953,0.07776219563245274,4.429948391233172,0.13883014641651667
3851110.3999999994,11.536854035513743,0.03219505426214309,10.941169905662537,0.05327830549317775,10.901501035690307,0.07034816179347507,4.513989746570587,0.08749233904726773
4001331.1999999997,11.458230137825012,0.006189495171416799,10.969893046787806,0.06676400714328044,10.88952010018485,0.09484587339194087,4.673849664415632,0.07714095377229108
4151551.9999999995,11.527691786629813,0.021615961240782283,11.014635467529297,0.047117097445993926,10.952845600673133,0.08650466748696255,4.787906510489328,0.1327616419916646
4301772.799999999,11.58859816959926,0.024866641479616012,11.050206589698792,0.01755676731878697,10.93331220149994,0.05697123420738605,4.784723377227783,0.1391967637694668
4451993.6,11.53718740940094,0.028281419766489447,11.052277292524064,0.05015781578010261,10.874235316685269,0.05482751705991648,4.9714868681771405,0.20574276443582842
4602214.4,11.603427859715053,0.02987985143239696,10.988873481750488,0.042463374809304844,10.958631406511579,0.0321009629542223,4.939703832353864,0.23781791662141505
4752435.199999999,11.61284373147147,0.03928070790136644,11.03846778869629,0.04476514518316589,10.98038625717163,0.06273850350696492,5.0528087496757506,0.3794002979230749
4902656.0,11.53752679824829,0.04463349498363073,11.086604717799597,0.036127753822781224,10.975368309020995,0.05303267711577181,5.231749194008963,0.45217843609380715
5052876.799999999,11.522693579537528,0.04572048774038302,11.034035001482284,0.02600628591775313,10.970334434509278,0.0683276578990465,5.418648106711251,0.4906167966559619
5203097.6,11.524089595249722,0.024660266776253027,11.01590828895569,0.04459619989777824,10.977344059944153,0.08732543919403435,5.73605318069458,0.5258296594099112
5353318.4,11.576443123817445,0.011317455046374606,11.068591226850238,0.034793005254815115,10.995746312822614,0.062477839827349044,5.976171657017299,0.5793151632978364
5503539.199999999,11.497363826206751,0.04844357484354524,11.021551840645927,0.045247383979068335,11.04472405569894,0.045758510681795615,6.115774059295655,0.6469652136237747
5653760.0,11.536242621285576,0.0225909275326863,11.130293560028075,0.027798215542416158,11.013417744636536,0.048701143965915274,6.299486899375916,0.6942919603983658
5803980.799999999,11.571905851364136,0.030614356241763726,11.128102629525321,0.023305633165730446,11.048488916669573,0.0335955321826525,6.416241945539203,0.8184220744257009
5954201.6,11.4650819505964,0.03229258026386112,11.068831525530134,0.021450163072043463,10.982767350333075,0.06531576823650458,6.53525881086077,0.825662764208312
6104422.4,11.534788077218192,0.04243432644978392,11.069793152809144,0.03763690902662028,11.143725943565368,0.042664090948319744,6.627219498157501,0.8035571828196837
6254643.199999999,11.53681001663208,0.04579272897548613,11.05320303780692,0.04485601945398448,11.032396834237236,0.06827703396883941,6.81932179587228,0.8816009221279689
6404864.0,11.48558861868722,0.028481471243789743,11.152614402770997,0.035987861543567,11.080827031816755,0.0547820835467684,6.799626622881208,0.8634916229767293
6555084.799999999,11.515429769243514,0.052651981322225816,11.185240292549134,0.05216261334375834,11.096901798248291,0.07291748963061366,6.938078939914703,0.8669196586900374
6705305.6,11.577096629142762,0.056430861475950125,11.079929733276368,0.03474024683932228,11.12439182826451,0.06096174799463066,7.122937216077531,0.9030532347024622
6855526.399999999,11.593111228942872,0.05873454259551831,11.07573664528983,0.04648668723261243,11.136097499302457,0.06220732882003025,7.048991884504045,0.890152605314927
7005747.199999999,11.59036156790597,0.04290480490598417,11.080260753631592,0.0333318299828278,11.0586927652359,0.05050823684596497,7.107846140861511,0.9413237628398577
7155968.0,11.582645630836486,0.07294052467651543,11.108720397949218,0.015739753677444117,11.072374670846122,0.062139709814483426,7.298685482570103,0.9481173022291475
7306188.799999999,11.527925736563546,0.05179608047469379,11.147674424307688,0.03196382177520224,11.006799043927874,0.0942851851505979,7.298864037649972,0.9077426795456122
7456409.6,11.564906747000558,0.059378335521843024,11.099705696105957,0.051689255540127335,10.791270446777343,0.061336566184800816,7.312638582502093,0.8550170510130386
7606630.399999999,11.424510145187378,0.048970866901270144,10.28101063966751,0.05607521901298256,10.932684421539307,0.0678376187574618,7.104822301864624,0.7319472734500644
7756851.199999999,11.56850299835205,0.042265521172845565,11.0286860874721,0.03938704084165065,11.067681530543734,0.05799671040053953,7.378513390677315,0.8637302660180249
7907072.0,11.505143329075405,0.042522350354451524,11.095893614632743,0.012376423056185448,11.082775797162736,0.060831107112329634,7.417011874062675,0.946178480004134
8057292.799999999,11.614454245567321,0.025432296104877503,11.18796615600586,0.020596868391171284,11.057215881347656,0.06707626240480193,7.365589904785156,0.9280481685127563
8207513.6,11.543938200814383,0.03392106957497754,11.155484798976353,0.030799276379044865,11.024901226588657,0.042882185721752154,7.5048094068254745,0.9139621667354827
8357734.3999999985,11.523249925885882,0.023399803994818943,11.164364569527763,0.03292137389117797,11.10229764665876,0.04423326444917453,7.560950374603271,0.9036737093806408
8507955.2,11.583569502830505,0.0188892201026737,11.186291599273682,0.028346725828206753,11.096473479270935,0.026425698099781802,7.6339843511581424,0.9315734011234391
8658176.0,11.580645779200962,0.020955149419002825,11.126569012233189,0.06411170805392293,11.039959308079311,0.03687604355706371,7.708157498495919,0.9375103531143536
8808396.799999999,11.54335833958217,0.023904981933900876,11.168133435930525,0.05677160773188373,11.10619991847447,0.035540284093587234,7.713083267211914,0.9364431033948656
8958617.6,11.53823788166046,0.02688344628527746,11.12661316394806,0.04173295365670504,11.107491970062256,0.04480720901787502,7.731675243377685,0.9499718447141947
9108838.399999999,11.57379425593785,0.05637296221699174,11.135030800955636,0.03190472546879295,11.068671008518763,0.044370270100327354,7.853883620670864,0.9373714631434399
9259059.2,11.511482102530342,0.03427064884500561,11.203174100603375,0.03261130917220005,11.033828708103725,0.057453636198775,7.8805887767246805,0.9206191125906776
9409280.0,11.554642462730408,0.0313687271451777,11.20781729221344,0.025180744328818113,11.078993892669677,0.0337803794492374,7.866131591796875,0.9195230247270513
9559500.799999999,11.52941551208496,0.046167094950502946,11.184818812779017,0.02416339864914795,11.051650210789273,0.0586458434099095,8.013779830932616,0.9091037590479164
9709721.6,11.608117648533412,0.0362822123165656,11.150654302324568,0.01050087810499465,11.09322667803083,0.04009934804923898,8.033359350476946,0.9422611159161958
9859942.399999999,11.568201446533203,0.020804638837165264,11.188145303726197,0.019744922638782584,11.08532898426056,0.03114972841257774,8.065019524097442,0.9458432774501488
10010163.2,11.552513313293456,0.051844144316062594,11.17833243778774,0.03135633654310819,11.152136039733886,0.02567405008572414,8.160355854034425,0.967137683405184
10160384.0,11.55460158756801,0.04345980376499848,11.179899161202567,0.03338289698263966,11.13525197165353,0.055249807706088894,8.152664279937744,1.0190999009176425
10310604.799999999,11.545948672294617,0.05393544213584228,11.210879063606262,0.009641187617459827,11.052751684188843,0.06250295316438514,8.153734004497528,1.010717420078955
10460825.6,11.605581992013114,0.02619599258465289,11.152341869899205,0.03805439862042107,11.160405485970633,0.04912516431615522,8.126617881229944,0.9733848189981492
10611046.399999999,11.513475390842983,0.0466808115576395,11.185016468593052,0.049653540255579665,11.084068788800922,0.05799318214088897,8.236582129342215,0.9711395266150279
10761267.2,11.58139510154724,0.053802999941961,11.14051811695099,0.048434297200073265,11.143273973464966,0.04689433160180038,8.230499148368835,1.0132892742640613
10911488.0,11.653990527561735,0.02835261921489513,11.206601551600865,0.0224314829212806,11.131824956621442,0.011682754984610048,8.283432606288365,1.0049301524035832
11061708.799999999,11.533529635838098,0.023423737941998268,11.23317764827183,0.0298074546896598,11.147760391235352,0.045271383371246025,8.286815534319198,1.05566758056752
11211929.6,11.632445859909058,0.05234870910598654,11.247452872140068,0.04216781965883264,11.091830199105399,0.03760589461305078,8.374813515799385,0.9852703859498924
11362150.399999999,11.590184347970146,0.02266248709681079,11.18222668170929,0.00839096290529855,11.088494300842285,0.020456117023179333,8.417901623249055,1.0322033224661196
11512371.2,11.576151330130442,0.07493747574158521,11.161604336329868,0.04382901463612224,11.120748628888812,0.0484410263811811,8.49835021155221,1.0038034714771416
11662592.0,11.61117238998413,0.04363228749552536,11.216520663670131,0.03694386884354291,11.144574928283692,0.04539257975734572,8.440936252049038,1.0148580226241006
11812812.799999999,11.642836952209473,0.036350996709661944,11.210931944847108,0.048630071664105906,11.178716373443603,0.03611499571116155,8.463045811653137,1.0259870184478397
11963033.6,11.63573341369629,0.008361434459167365,11.18721694946289,0.021176237892483792,11.169077546255929,0.02737636064928448,8.481681496756417,1.0205098518899156
12113254.399999999,11.623032307624817,0.029925407707393752,11.222306469508581,0.043076034008330696,11.150749778747558,0.044842552377060245,8.523067242758614,1.030949879395566
12263475.2,11.616816220964704,0.02783697576177922,11.236504077911377,0.02124391393336815,11.183169984817505,0.04207168935083981,8.510533547401428,1.0092530549865197
12413696.0,11.55566850389753,0.019435328550079217,11.153556496756417,0.03871882971376795,11.176908901759557,0.030483148547500165,8.558017580849784,1.0378528543006897
12563916.799999999,11.58165409564972,0.04048978733369115,11.153092357090543,0.030641110869891765,11.137601688929966,0.04307089461335454,8.661256912776402,1.0354143250506456
12714137.599999998,11.596850912911552,0.027386187139943854,11.14373037815094,0.049358672293704865,11.163635015487671,0.04645711783636744,8.63494565486908,1.0575055731413352
12864358.399999999,11.571570641653878,0.03706362324546468,11.199225234985352,0.011636421809408944,11.106256185259138,0.03286781942668921,8.648128128051757,1.031162247514431
13014579.2,11.604176044464111,0.027483864051726745,11.230432074410576,0.050803678785370586,11.20038754599435,0.04411359677902857,8.626131302969796,1.059492331606688
13164800.0,11.54908035823277,0.01913085805696058,11.182646799087525,0.025613102330056942,11.17709641456604,0.05724100294189361,8.718750536441803,1.0485090619339807
13315020.799999999,11.62143178667341,0.019920540793994617,11.200956698826383,0.032620195088709704,11.173589406694685,0.060399645055214786,8.799429866245816,1.0583027695369658
13465241.599999998,11.626755309104919,0.03795870556847464,11.194440133231026,0.020223036402117787,11.10075855255127,0.035085739954143935,8.790161051068988,1.0644628120526551
13615462.399999999,11.665987941196986,0.045679070297668205,11.169386792182923,0.01490030213862875,11.201621818542481,0.028317699558482946,8.719612526893616,1.033284206142579
13765683.2,11.61175468989781,0.037479684908564605,11.225661931719097,0.027894090770118927,11.149026707240512,0.035963777661118766,8.749633816310338,1.0465583633375828
13915904.0,11.657015204429626,0.04449445668401194,11.215566635131836,0.028089657999733578,11.178074700491772,0.03591220657949203,8.777135235922676,1.0686972864928648
14066124.799999999,11.636265918186732,0.01712865097293435,11.201178479194642,0.029700991565569084,11.138366103172302,0.04775746708285776,8.830948531627655,1.0855536706511444
14216345.599999998,11.649016489301408,0.0403022349683033,11.189455141339984,0.045353976441962186,11.184142848423548,0.02353768049042552,8.72713373729161,1.0471416860516938
14366566.399999999,11.616614985466004,0.035137330920338584,11.212731606619698,0.038369433892269746,11.203013856070383,0.03881015176582669,8.800211470467705,1.1053510351940976
14516787.2,11.559977177211218,0.030319603570126703,11.200932121276855,0.03661243503607909,11.109820675849914,0.04740635262642082,8.806794118881225,1.0801411707443727
14667008.0,11.595002937316895,0.023306858874888002,11.22731214250837,0.030106871588775744,11.201995931352887,0.0424509867761199,8.799148981911795,1.0660315053941682
14817228.799999999,11.671818685531616,0.04788806264011358,11.156339890616282,0.038653710695286655,11.210778154645647,0.06947341146442831,8.739269202096121,1.0309378518019716
14967449.599999998,11.656034578595841,0.0218288136184931,11.047276251656669,0.0256406618791557,11.073769269670759,0.02384257179096117,8.773386764526368,1.0146665983544096
15117670.399999999,11.48633106776646,0.05341608708932813,10.4931170463562,0.04923298306975495,10.951252722740174,0.051218853274422035,8.094437044858932,0.9119360838681574
15267891.2,11.65668466091156,0.03467898815229971,11.184069006783622,0.025658105177797135,11.168748610360282,0.05605434107567347,8.719923864092145,1.0250218276050358
15418112.0,11.613401331220354,0.03981831553768308,11.14955406188965,0.044753553969049314,11.179693848746165,0.046359371364559324,8.74847537449428,1.0525255890630534
15568332.799999999,11.720481136866978,0.017796952858405973,11.21193594932556,0.017386664447186267,11.172949028015136,0.03248751816187853,8.827655673027039,1.04231675303691
15718553.599999998,11.66586983203888,0.046615811776449294,11.2236387525286,0.03658923283226629,11.142805562700545,0.06147826832919987,8.798864909580775,1.005151647415657
15868774.399999999,11.605819920131138,0.05247169224029774,11.23274484361921,0.036740595513260414,11.199423081534249,0.04363854454980776,8.844133690425327,0.988651612149958
16018995.2,11.64142712184361,0.03218465290972556,11.218317008018493,0.030622554568991482,11.16422188282013,0.06569740666365347,8.85479040145874,0.9730763259777734
16169216.0,11.67510404586792,0.018573602687456784,11.2474760055542,0.013089740896035214,11.195489583696638,0.020726958478205056,8.933509336199078,0.9426764440135962
16319436.799999999,11.591302490234375,0.03353630648404689,11.26052600315639,0.035784124855777165,11.135351371765136,0.026830490036310505,9.004981081826347,0.8838570741170685
16469657.599999998,11.563839203970772,0.03548670262985293,11.308680820465089,0.015383988437980634,11.17507860660553,0.04044968075724416,9.04048502445221,0.8620316815925948
16619878.399999999,11.631045579910278,0.04517225514827243,11.195331409999302,0.018341748837316582,11.200588689531598,0.05707663844966267,9.010868031638008,0.8722277167287928
16770099.2,11.662445885794504,0.03457039067086335,11.238160351344519,0.027942374032622196,11.094568007332938,0.03265699478626894,9.031543159484864,0.846530654475321
16920320.0,11.648229353768485,0.051828636278878744,11.224637699127197,0.05328352071598616,11.184392356872559,0.04319791806269524,9.189610576629638,0.7397077046956523
17070540.799999997,11.67989206314087,0.036537695352276064,11.241996819632394,0.07279011877314183,11.155998965672085,0.028001082095892398,9.253052507128036,0.6307831441449849
17220761.6,11.667493547712052,0.023015709006815262,11.162901442391531,0.06731788745523229,11.187547166006905,0.052739196516079744,9.273623085021972,0.5153592511969586
17370982.4,11.600193241664341,0.02649607305919954,11.219405126571655,0.033435278788887156,11.170403051376343,0.07744541988982091,9.523400270938874,0.40407886396891707
