x,Img+Prioception (Cartesian Increment)_mean,Img+Prioception (Cartesian Increment)_stderr,Img+Prioception (Velocity Increment)_mean,Img+Prioception (Velocity Increment)_stderr,Img+Prioception (Position Increment)_mean,Img+Prioception (Position Increment)_stderr,Img+Prioception (Torque Increment)_mean,Img+Prioception (Torque Increment)_stderr
20480.0,2.394314448038737,0.1092371906262796,1.4266732136408489,0.04821293243931088,0.32538468917210894,0.1971160438054259,0.0,0.0
104006.9449081803,2.111180851203389,0.030193889484669875,1.4154264435571768,0.03210531961447637,0.5322960341442445,0.17434581805563223,0.0071274021521136035,0.004147526349484648
187533.8898163606,1.8807056739486452,0.1283059423734296,1.4026621461387958,0.018461902249486628,0.7364348838290181,0.15055785684800962,0.01515030759872856,0.007674398823883748
271060.83472454094,1.9579379545323132,0.18678812287452268,1.4359552775827122,0.031550983790349804,0.8665664556582872,0.11108415702917816,0.0187226474102049,0.009412185730050088
354587.7796327212,2.2352283038038068,0.27644374035332175,1.4720903129809375,0.017727846983763628,0.9780568272058868,0.17662839197263805,0.02091955993771775,0.011442075867162648
438114.7245409015,2.7901333201107477,0.5142947281593739,1.5033693572645632,0.0035701773154343816,1.1282279228212067,0.2934784275474175,0.026149687832665525,0.016424721911601558
521641.6694490818,3.6804401681757017,0.8088733545487693,1.5163632742659183,0.03226530835476217,1.2784902058745777,0.3980010853559307,0.03509847520881758,0.023204854169516283
605168.6143572622,4.758517522681523,0.9787970611978866,1.5586860306760402,0.05288147974464068,1.429095768845082,0.4804962099955428,0.04401524960672348,0.02534665222490316
688695.5592654424,5.943900824887323,1.0544084030156577,1.588225404630971,0.061023806766695526,1.5871770444011337,0.5658120895631868,0.0568155434575778,0.02357936770599863
772222.5041736227,7.040150507789842,1.0468192433667087,1.6202407354892288,0.06839808391921713,1.7631989557282008,0.6503550810054709,0.06996575719701853,0.023482182709273183
855749.449081803,8.091084222140607,0.8870313275574719,1.6585060802939304,0.0827584211958617,1.9572309097723466,0.7451972235642691,0.08054251693974716,0.02677795338862759
939276.3939899834,9.07693921329424,0.6826041426174833,1.6888772791593472,0.096421991011047,2.161897567358999,0.813385941770169,0.08902574260868447,0.031197109865087377
1022803.3388981636,9.800897072029294,0.47172346818658367,1.7078091626831522,0.1041288011831421,2.362441458977457,0.8559093438896489,0.09536870654375905,0.035786518042059984
1106330.283806344,10.336193385105894,0.362293509039464,1.7221806542564435,0.11442449986085595,2.5570304671059625,0.9059446297554989,0.09798234396933685,0.03887064134945676
1189857.2287145243,10.709743136540583,0.2644957488170677,1.745738820350948,0.12804872693038605,2.7202060912516566,0.8876003373114024,0.10057144425154428,0.041959947823795904
1273384.1736227046,10.96334501831843,0.1714097655453593,1.791558622694667,0.14414967469067058,2.9087683056838074,0.8908933611957026,0.10416255550919969,0.04560020114812403
1356911.1185308849,11.133565145215181,0.11180027481684984,1.8433786547848066,0.15472324030267676,3.1135779063369444,0.9431948042345975,0.10513039549247293,0.04879658861222392
1440438.0634390651,11.267129984877144,0.10252056773530271,1.8646804116796698,0.16255706622883934,3.2987073243624097,0.9742562529314792,0.10518039501004932,0.051101058894945435
1523965.0083472454,11.346204711744505,0.10103819354518548,1.8726711474459534,0.16959698258988037,3.5728493727595194,1.0258617501728804,0.10581753216129171,0.052991190892460384
1607491.9532554257,11.416159271955882,0.06924680822127581,1.8998012321115951,0.20103157959292253,4.014263297980969,1.1747724268631743,0.10624281928381536,0.05463988485117255
1691018.898163606,11.441023100930986,0.04978201871966684,1.922817964466508,0.23471217769445255,4.61168706503895,1.4134420706299213,0.10515932996165177,0.05518741291855688
1774545.8430717865,11.509458203424083,0.02442999854374788,1.9353110773070867,0.244166013009073,5.155538908697316,1.5682757628296675,0.1049837102455412,0.05599836309487859
1858072.7879799667,11.56240875471479,0.03309924771537354,1.977282726675634,0.25604717094847995,5.681426177541788,1.764521842762394,0.10593389783124207,0.05671818363860159
1941599.732888147,11.564866434773377,0.04544164693369671,2.042841300033341,0.26906860907239444,6.190017988846079,1.9405186816456452,0.10692943504349454,0.05753370403372997
2025126.6777963273,11.601904639725133,0.05567272997710908,2.084640314302144,0.26486030169813735,6.64767690052624,2.1042883490988102,0.10563299965577282,0.05697780940572453
2108653.622704508,11.61563693815917,0.07541254214509262,2.092094471072622,0.264766369371536,6.992562089125879,2.2430508710292054,0.10453614865627298,0.057084742088048146
2192180.567612688,11.626782644153188,0.07027999915516978,2.093617189966039,0.2651591555425848,7.352920972673758,2.3669801446806327,0.10573633188420535,0.05762225815244219
2275707.5125208683,11.677033188389762,0.07273213981617668,2.062953285566104,0.21804941211287523,7.640936808211191,2.4391302064624507,0.10569736613456338,0.05732013344381967
2359234.4574290486,11.658137791754106,0.0534286562200066,2.08706336968763,0.20588116796369413,7.864858196308448,2.5106422346919075,0.10562792079310172,0.05708955204421701
2442761.402337229,11.628099728110469,0.04485977109159045,2.132557256731768,0.1972521333528609,7.981063843120604,2.546055947809979,0.10624617759991584,0.05767283115076002
2526288.347245409,11.625723529084693,0.055734856180877444,2.141037615925142,0.19627634735672844,8.101505516513802,2.580211309992298,0.1070419172048012,0.057885733933526876
2609815.2921535894,11.64768793054192,0.05414923584505154,2.1744103551013336,0.2198085826428691,8.234730470713925,2.5814627429607975,0.10849117885864261,0.05809563731964163
2693342.2370617697,11.679585885497724,0.03529320014598329,2.2142208406750234,0.1989978912024566,8.372990421547684,2.5623030885831635,0.110526744658813,0.05923840376708152
2776869.18196995,11.658110071743744,0.010620458596727663,2.2431800452117785,0.2008066727341164,8.477959527236253,2.559022516756104,0.11137281592139979,0.059973384844068674
2860396.1268781302,11.68274720815045,0.017818070042611343,2.290551545014603,0.20876562469899324,8.58935908893042,2.4948835753555834,0.11255874075061335,0.061214860295965616
2943923.0717863105,11.700197806800892,0.005183921025381158,2.3311822794888086,0.19588207924884585,8.781855302801022,2.37026935507814,0.11403287848452776,0.06205293427201186
3027450.016694491,11.699105823760938,0.01204598737292477,2.3218768575747983,0.16632888548280553,8.927359635506393,2.2709565948466737,0.11699378839775193,0.0611491664872473
3110976.961602671,11.700313172106325,0.011106442604953507,2.304135220729879,0.14811256664131447,9.048320231171369,2.1394448286107406,0.12456187902019229,0.056362177906413485
3194503.9065108513,11.689479832785318,0.00904997961515601,2.3203974277674155,0.12801408587627514,9.253143628257174,2.00347239294619,0.1320355430939266,0.049039599654706834
3278030.8514190316,11.680122664911645,0.01839233059175017,2.368361531524727,0.09373873109350232,9.423259927897938,1.8159538380955114,0.13902700287826483,0.044967213284240214
3361557.796327212,11.674788212292752,0.00996058757686393,2.3810239250167693,0.06660043322065572,9.634645762910685,1.5907764021261255,0.1438331068614487,0.040667422424225434
3445084.7412353926,11.630297280234714,0.006142877974095526,2.3853050751198244,0.025526774873898043,9.9209247605574,1.3716147241147185,0.14728246417746524,0.038110499997443606
3528611.686143573,11.653383442810956,0.007403086462153766,2.3985303009145778,0.03130185453947579,10.14252796610705,1.1397683367569695,0.14948752901520831,0.03690111949987137
3612138.631051753,11.646184113374275,0.03354501461741022,2.4329027050316605,0.016315077898930046,10.390164253015731,0.895194348476623,0.14990745777983314,0.03584156754579139
3695665.5759599335,11.68291878806815,0.03090917334480659,2.4461766324481022,0.031319075966782975,10.625486545496885,0.7268657263505011,0.15025934706041932,0.035258037830647904
3779192.5208681137,11.721859303269568,0.03347988485076641,2.4382516397513263,0.04650302097865046,10.71513250985298,0.6005808604323898,0.1508071283523735,0.0351059806370153
3862719.465776294,11.72979508444209,0.03345785297125815,2.481028861599921,0.05740091394874571,10.867328423275985,0.5028916974269207,0.15154340110647863,0.03561028409483473
3946246.4106844743,11.755432475770283,0.0370179687058146,2.533619568233121,0.07899276639348927,10.95841136916203,0.41508600217881547,0.15261348345125184,0.035117970019658884
4029773.3555926546,11.746804693048006,0.04443211020343968,2.5700242086863434,0.08529761884278554,11.03512545595884,0.30868526991830497,0.15398492276126785,0.0350385491511242
4113300.300500835,11.72598749938176,0.028043253686969877,2.598235395893107,0.06846073838730928,11.05833591069396,0.2837430983486989,0.15506790855527827,0.03533670204248144
4196827.245409016,11.706904978621802,0.012902941219605911,2.639044234175337,0.06648815200138393,11.139065974193365,0.24372872073985266,0.15652625727514236,0.03574410393065431
4280354.190317196,11.679206153510952,0.02922216067784896,2.6731486684311236,0.10426937767329383,11.208411771894314,0.1938944165142658,0.15775204592054506,0.0364980556356738
4363881.135225376,11.693796668426623,0.007151237445544398,2.7320060338117726,0.16348337710617872,11.24297280822107,0.1656797742621011,0.15815580367290774,0.03592077434108456
4447408.080133556,11.717433198696376,0.0130132267926401,2.8113036262566555,0.18301456408431388,11.268563235082786,0.12229021681574678,0.15973421834401205,0.036587319840889684
4530935.025041737,11.708348504868425,0.03329208663762085,2.8935456906278763,0.19553428282611895,11.29017092725976,0.13550712473200568,0.16056695411649435,0.03735378348855012
4614461.969949917,11.731813685035045,0.023330083333777365,3.028771267837962,0.2347452993195833,11.332263808456512,0.13773735037914336,0.16200581464706773,0.037973840644383895
4697988.914858097,11.746546674600268,0.031384147257931184,3.1929835035499603,0.2835861591257897,11.360521406964756,0.09395076224150534,0.16367315643926258,0.03841023693993777
4781515.8597662775,11.737291527524874,0.017186332623945297,3.310283155340921,0.3050703573327021,11.363950813850353,0.08613816312045273,0.16454084049819384,0.03821560820090327
4865042.804674458,11.772443169392728,0.007867768263338024,3.4089496920901383,0.3456176166945846,11.361212096072443,0.08567489281044759,0.1657075163069132,0.038771880194049535
4948569.749582638,11.773787348223903,0.01828914117467184,3.4785748447061438,0.40273524173093833,11.365625147219255,0.06893725382718224,0.16623666962910247,0.03911777427114267
5032096.694490818,11.75760511487617,0.027636433637014905,3.5385573193060993,0.4233865871360855,11.361045626799127,0.06852388209633746,0.1668875836335634,0.039814920556389855
5115623.639398999,11.758711610226774,0.014227663083585695,3.6417779463278888,0.4368762925741386,11.402679342378663,0.053406016681080706,0.16844434045174395,0.04052091911194587
5199150.584307179,11.783955782763535,0.0028929485291558053,3.744761384301494,0.46741767462010136,11.399291135861256,0.040212094961723906,0.16842294998264562,0.04038099806403162
5282677.529215359,11.782255276782138,0.030596910204491196,3.820804254423626,0.4882248590748637,11.416306342830984,0.03323586876329094,0.1690738041526021,0.04050042409040716
5366204.474123539,11.761288923572428,0.047083270014736174,3.9064249777816413,0.4870882556879265,11.434697266725088,0.028940089852068234,0.1689382806497798,0.04022265806506625
5449731.41903172,11.7255557363577,0.028480497659400972,3.95073751072534,0.5112910860684325,11.402505379523626,0.03620686389861311,0.17051474206679218,0.04104061194190549
5533258.3639399,11.753261649684111,0.040441053169999824,3.977254366299146,0.5315709781188248,11.444040018248979,0.05360012132193123,0.17183295421621578,0.041433355625236076
5616785.30884808,11.763072123613085,0.029069237087353487,4.021567620069294,0.5306129164943343,11.439315289618202,0.057123544200322264,0.17254758694402691,0.04163140418481278
5700312.2537562605,11.79744741277675,0.043046305652186485,4.031824849635696,0.5365365778957907,11.46229169325567,0.04999927890549598,0.1718848713392249,0.041332637588741714
5783839.198664441,11.771513155109787,0.04206929509378402,4.050169828472172,0.5356691909475155,11.456448983359527,0.04155657595242676,0.17136512436440768,0.040713755872517125
5867366.143572621,11.775184401002228,0.01567074015181685,4.082520485547156,0.5486546831403549,11.463167137703254,0.056774224775355604,0.17171298581270175,0.040363033942560585
5950893.088480801,11.740222284632582,0.010862134710032991,4.120144168949491,0.5583200521180153,11.454145023759713,0.03192676789890219,0.17179495423824243,0.04007218783195732
6034420.033388982,11.718184320230051,0.011523303720861673,4.090203008076201,0.5268994448154299,11.47271776443152,0.0304542205958181,0.17044949290586153,0.039720183817003325
6117946.978297162,11.711775895569538,0.03805238499372879,4.062768375317411,0.48117615589524143,11.430104373034531,0.04072424674110806,0.16624470626000185,0.038805186094899816
6201473.923205342,11.755460085820504,0.03180454443958917,4.09479757098828,0.4310695541362957,11.451685909623778,0.047906489382486726,0.16372246104543067,0.03835713169799506
6285000.868113522,11.775240703546814,0.024136835124241807,4.153848531555862,0.3731544740609645,11.446742690197079,0.06698608279712838,0.16256942312944897,0.038437563418783675
6368527.813021703,11.77514003901229,0.014118599837660636,4.1584867668561225,0.3295254830080973,11.42389792309379,0.059236206254956125,0.15990052920246806,0.037184309703666964
6452054.757929883,11.799325779594708,0.021005327238438967,4.163290209066177,0.29918555198493185,11.444896648559398,0.07313189391849685,0.15556075210561635,0.03636796956071125
6535581.702838063,11.79279099511652,0.014017313040699798,4.20798122780016,0.2965440402711624,11.461022288822619,0.060736721862743634,0.1469849610160095,0.036731744044037624
6619108.6477462435,11.78484079554651,0.032562104680702156,4.2638592570372,0.29770089550304246,11.458033488976179,0.06364698613701111,0.14262515836660614,0.03840336199574266
6702635.592654424,11.752813701593702,0.06263070192019103,4.346244877061048,0.27578857979421123,11.468133613094404,0.05719867003659498,0.1370817273803335,0.041907253823503195
6786162.537562605,11.728020255810293,0.07660022420519037,4.383714693173176,0.2639069759302901,11.440659950366042,0.05057908143157109,0.13532524979092175,0.044747674846732206
6869689.482470785,11.75963667756748,0.0537192004543363,4.361988111505605,0.2317509506888463,11.44523741757781,0.04199873117512092,0.13429271286444913,0.04572029873042846
6953216.427378966,11.777439328003,0.04399857260357445,4.375406111442316,0.21206563160334815,11.46025144265412,0.061425619739757194,0.13151552571467404,0.047093065440048223
7036743.372287146,11.798331750175196,0.04610697450341475,4.322743622339935,0.23815024686935887,11.444256569737476,0.013012527188301863,0.13179740196319809,0.04779175559583496
7120270.317195326,11.827954777502763,0.04416795898925002,4.243617798642919,0.24552741836750896,11.470594157540068,0.02287627417758733,0.13242270632103792,0.046858768562632526
7203797.262103506,11.830332911867949,0.046267680649072634,4.236427481883705,0.26535585084583757,11.488644347700083,0.021811084291286312,0.1331011775405747,0.04691643551119398
7287324.207011687,11.81976291824886,0.06609178153017446,4.189555978630417,0.3119923349147637,11.491898125733163,0.060716376243833164,0.13270839187154393,0.04656611147044309
7370851.151919867,11.843985633555569,0.06020861881125678,4.182658246085494,0.3136794569273826,11.475094063657417,0.043765473484802205,0.134469696214022,0.045917875391235895
7454378.096828047,11.858989293771947,0.033535528177587856,4.207104608582507,0.30858899577115867,11.499617872487084,0.03310735299442823,0.13408797937800043,0.04338626582526155
7537905.041736227,11.829975734892201,0.05918337497666219,4.195482103224596,0.3327698355312737,11.5217152851995,0.051099100402378334,0.13199974773916315,0.04126443011220028
7621431.986644408,11.839857915195864,0.05142890049143733,4.1980296834237985,0.31943237405105146,11.514724378553007,0.04920439701571797,0.13040300671582264,0.03942873323001637
7704958.931552588,11.81534613126135,0.03422844251285986,4.22351921014558,0.3319884871678818,11.564977973091194,0.06458447931810472,0.12439448432753662,0.036777568626906953
7788485.876460768,11.869169919095624,0.033300500596945413,4.278185479676243,0.34503884995814,11.54956988976165,0.061192237537115106,0.11921310947417711,0.03337725214902324
7872012.821368949,11.881163833135693,0.0506486680567891,4.279061807390783,0.3704803227843559,11.55348910733951,0.06064609075032593,0.11537587594672305,0.030635184907665272
7955539.766277129,11.842643940232266,0.0510277669704745,4.318748258309921,0.36113500140370464,11.552336002613744,0.05749162463605446,0.11194227680794806,0.02734394656990394
8039066.711185309,11.828285436770253,0.03756968248295123,4.383771207146898,0.3116693335066743,11.509947486220954,0.05507727911017425,0.10861133461587313,0.025487353654488353
8122593.656093489,11.856236512814112,0.028897704296048217,4.402822977474813,0.2740372225624644,11.527080410207935,0.060044589890370564,0.10544170326939628,0.02362884812266428
8206120.60100167,11.868147900487484,0.013703052526286126,4.38684792862361,0.25543333902108906,11.548889741093326,0.05782773016476145,0.10152461900593877,0.020558026785423282
8289647.54590985,11.855937974147869,0.011853059581152401,4.405365768802411,0.24255107789984054,11.595125282790447,0.04256180457612082,0.09772161648767076,0.01692871007893246
8373174.49081803,11.836717352297827,0.03822150762000981,4.420157053941853,0.25157073103032346,11.592556427324148,0.057556044876739786,0.09177990619375707,0.015324507057814511
8456701.43572621,11.843191131343367,0.05959916338957601,4.3621527893249885,0.2903748723680887,11.603370414523603,0.06533135088271988,0.08560773057813172,0.014763926832566247
8540228.380634392,11.854746921548625,0.05312716042476563,4.342856942780638,0.32322903174793455,11.596314544679442,0.07863965779300709,0.07843228713998433,0.016011113002983142
8623755.325542571,11.854608931445496,0.05569939499934917,4.376126845172286,0.268065778772357,11.591111017653908,0.0345389486795073,0.07402017332386762,0.017473448225350834
8707282.270450752,11.851837892675059,0.04284394167416192,4.408020362153607,0.27933173593044464,11.592684293317914,0.04964056531243693,0.07408398737345086,0.01826983251701469
8790809.215358932,11.879000164907808,0.03956839837761926,4.441770678630033,0.2837512412674309,11.588553032900643,0.045421766008145,0.07396588687588329,0.01861574084082358
8874336.160267113,11.874606275599097,0.02847473134458669,4.424677424758772,0.2545434087318589,11.564352250916157,0.05786155495348366,0.07442613618862669,0.01860123468142031
8957863.105175292,11.857268074290971,0.01679115526397809,4.422873147333937,0.24296690360106865,11.606268637971363,0.05889259321720077,0.07408474663784699,0.0193122012386002
9041390.050083473,11.895263646947996,0.025759276485252853,4.457794538265799,0.2286915536331033,11.591232786403461,0.06248079931205836,0.07329380658937808,0.019074066420778576
9124916.994991653,11.889577170997185,0.023683190919704448,4.438441845070115,0.21596228925354005,11.578071282303895,0.049545051920824125,0.07325875154889681,0.01986029400795038
9208443.939899834,11.845920841074767,0.02707908543131646,4.391678932591304,0.2124421963757775,11.56174681722152,0.04552674545993239,0.07005402242775584,0.02132850339398747
9291970.884808013,11.838928276185223,0.007464858315921339,4.328162456966781,0.18391858383830184,11.578186755717818,0.06382124312605222,0.06579847137676544,0.021784226799199106
