x,Img+Prioception (Cartesian Increment)_mean,Img+Prioception (Cartesian Increment)_stderr,Img+Prioception (Velocity)_mean,Img+Prioception (Velocity)_stderr,Img+Prioception (Position Increment)_mean,Img+Prioception (Position Increment)_stderr,Img+Prioception (Torque)_mean,Img+Prioception (Torque)_stderr
145561.6,1.6803416586839237,0.4213710446054577,1.69839504131904,0.2740596349422748,1.7034631307308488,0.04884188387506091,0.1303238834326084,0.013029518035741962
395724.80000000005,3.5898919370439315,1.3044586739394795,3.2117572923501334,0.927120198806127,3.1988481216960483,0.41725893408408016,0.2075166025509437,0.001706162467598915
645888.0,6.349296225441827,2.0159550026490654,4.4361563722292585,1.134656806786855,4.6991327669885425,0.70085457078276,0.2357834664483865,0.008628370861212417
896051.2000000001,9.40002343389723,1.0431523733976844,6.179215391476949,2.239607969919841,6.48836890856425,1.0036785947753646,0.303906445701917,0.022834427654743195
1146214.4,11.043548706250313,0.2161263778788857,7.753567695617676,2.8472264607747397,8.800688412454393,0.8494725266762456,0.41930423791591936,0.04830364309824431
1396377.6,11.366797182295057,0.1198415850162406,9.070884484511156,1.951254551227276,10.400385661002916,0.2555710892882127,0.5605848307410877,0.005099924902121244
1646540.8000000003,11.459471437666151,0.11318256551915933,10.362856904665628,0.5854970216751099,10.871253781848482,0.038510794791629985,0.7068446353077888,0.011248754958311678
1896704.0,11.55102268854777,0.024687106260152292,10.909839471181234,0.3432040214538574,11.135916921827528,0.021695846969688327,0.8393378257751465,0.056312739849090576
2146867.2,11.642317824893526,0.050713432872964995,11.20512835184733,0.15088129043579102,11.257779783672758,0.030220198119748645,0.9222435553868611,0.12549588084220878
2397030.4000000004,11.64942465073023,0.016954506808957458,11.234683632850647,0.021929383277893066,11.17419179280599,0.038130439126108855,0.9487236302632551,0.14411729803452128
2647193.6,11.64189871152242,0.04853399408962292,11.275893798241249,0.06840118995079614,11.279489712837416,0.023872853489086403,0.9021010225017866,0.18173947681983316
2897356.8000000003,11.650088469187418,0.03341685769368144,11.319640358289082,0.049336234728495576,11.301604456371729,0.04891363127937047,0.8824474935730298,0.20363082240025202
3147520.0,11.642107486724854,0.037988475421688976,11.371748487154644,0.04094294706980417,11.35788411564297,0.0553087144733612,0.9629597887396812,0.15530451883872345
3397683.2,11.676432413932604,0.04137083400982805,11.366854429244995,0.0386349360148106,11.366049183739555,0.0212185902049496,1.052375119466048,0.1087333468290476
3647846.4000000004,11.726104762819077,0.005896137626697252,11.438125173250835,0.027650554974873565,11.40999698638916,0.09663411979120806,1.1055086453755698,0.06378440062204993
3898009.6,11.729066107008192,0.04093840182188243,11.422263438885029,0.03965399815486048,11.478917146340393,0.020448030236632348,1.1452596684296927,0.07067776719729102
4148172.8000000003,11.682626697752212,0.05946222675524933,11.431500713030498,0.07288197676340769,11.451055314805771,0.024847530610280354,1.1971440513928733,0.07366905609766639
4398336.0,11.622168567445543,0.0021301191805321333,11.496720870335896,0.020616372426350615,11.455501662360296,0.03431011862453841,1.2094584008057911,0.09889191389083861
4648499.2,11.716507104726938,0.03553038144985715,11.513054966926575,0.01700834433237652,11.471155140135023,0.07168260001731465,1.2378455858964186,0.10384396406320429
4898662.4,11.646905978520712,0.013574895294546422,11.481494585673016,0.11104138692220021,11.519147210650972,0.02151845728104194,1.2627420226732888,0.10262505213419591
5148825.6,11.671939743889702,0.0672848238859951,11.541930125309872,0.061015422527606056,11.51826254526774,0.028079741511932804,1.2620051701863606,0.12404704093933104
5398988.800000001,11.737073103586832,0.014478592988267532,11.512291669845581,0.04793580373128314,11.490980254279243,0.05144269266671387,1.2525648375352225,0.14392789204915368
5649152.0,11.65682265493605,0.035758678653027,11.488905946413677,0.047447959582011194,11.51196845372518,0.010728446003903772,1.2864265988270442,0.12756551802158356
5899315.200000001,11.689136064969576,0.017910934653566895,11.500459551811218,0.019744594891866637,11.573717011345758,0.03292286086657053,1.2559798955917358,0.11140278669504022
6149478.4,11.713622411092123,0.024864124661523813,11.517427563667297,0.0008544524510707419,11.53508586353726,0.038533361277480374,1.264860803882281,0.15444059669971466
6399641.6,11.679594649208916,0.021868309950472096,11.529592587397648,0.02604829348050597,11.569771473224344,0.0712958574354279,1.2808069586753845,0.14991521835327148
6649804.800000001,11.669744571050009,0.05303595124116575,11.546290437380472,0.03420054912567139,11.493591944376627,0.07186014290536817,1.2711618493000665,0.1476297130187353
6899968.0,11.726016093523073,0.06221106315711869,11.520708719889322,0.058918952941894524,11.521044545703463,0.01947936191586706,1.2843993397859426,0.14914710246599636
7150131.200000001,11.803520070181953,0.033935332126681476,11.573968768119812,0.03650780518849749,11.58828854560852,0.024855157951055272,1.2962882171074548,0.17452189822991693
7400294.4,11.770997285842896,0.027045890040256298,11.539076646169027,0.0545814037322998,11.506370041105484,0.034853905658428726,1.2956052223841348,0.16736573974291477
7650457.6,11.73619720670912,0.02591048308387602,11.589877972236046,0.03343703196598913,11.563666539314466,0.03517312523115734,1.3091785411039987,0.16611634691556298
7900620.800000001,11.710620138380262,0.04455944700057817,11.627370238304138,0.03204182783762555,11.536402331458197,0.06407955499883193,1.2905659079551697,0.16425323486328125
8150784.0,11.751152136386969,0.02842929829131862,11.554780085881552,0.009375572204589842,11.581321371926201,0.03139848223957033,1.2937905742571905,0.1721754119946406
8400947.200000001,11.785810550053915,0.027612359139268704,11.556142648061115,0.0767704645792646,11.610229121314154,0.01926343439951075,1.2946038792530694,0.17189917465051016
8651110.4,11.73985645506117,0.056568704451265356,11.650516470273335,0.005130012830098173,11.588525295257568,0.049636527875684844,1.2666174719731011,0.18796133498350778
8901273.600000001,11.759298351075913,0.015133764247363356,11.516659516554611,0.08685537484975914,11.610778686327812,0.003817208583218335,1.2911458114782968,0.18964349230130517
9151436.8,11.825422075059679,0.03623260921705533,11.552149931589764,0.016663153966267608,11.551421907213,0.03616208598445444,1.300715814034144,0.20094812909762058
9401600.0,11.767275223365196,0.04488260098018025,11.610548337300617,0.06485454241434763,11.631601121690538,0.047643453730611664,1.2899997646992023,0.172976553440094
9651763.2,11.836796601613363,0.01577212442099918,11.413705786069233,0.04536132017771432,11.585483948389689,0.02414043792074646,1.2798387855291367,0.18583077689011884
9901926.4,11.824754529529146,0.020851738968128666,11.563045541445415,0.030724565188090303,11.593401829401651,0.013546185792287408,1.3028490593036017,0.19872195025285086
10152089.600000001,11.797485060162012,0.009767251749264872,11.521342424245981,0.05384335151085473,11.602729161580404,0.031047236430184425,1.263302981853485,0.21441225210825607
10402252.8,11.812584314590845,0.0571275975388975,11.550059954325357,0.013745784759521483,11.596200148264566,0.04724669895442256,1.2888550941760724,0.2006689768571119
10652416.0,11.783588356441923,0.018000004784483097,11.574017405509949,0.06806623935699462,11.619303650326197,0.027279469361605007,1.3028492083152137,0.19565465549627936
10902579.2,11.816827429665459,0.056479124388708335,11.590476552645367,0.0561764637629194,11.623414834340414,0.03876504828097505,1.3125647902488708,0.18695471684137988
11152742.4,11.82775372929043,0.0054563267702302486,11.523591200510662,0.012251536051432586,11.613247235616049,0.038029494375928154,1.3058724353710809,0.19137769440809882
11402905.600000001,11.825764629575943,0.024671778098958402,11.524041982797476,0.04263936556302638,11.61604299300756,0.042034895494422846,1.3019544631242752,0.1561729858318965
11653068.8,11.751082836053309,0.020894347598129706,11.549315690994263,4.680951436419888e-05,11.582839912838407,0.06241098113244795,1.3238721627455492,0.15606053975912237
11903232.0,11.838786681493124,0.035543574385218206,11.56724488735199,0.0006281137466430664,11.655240376790365,0.026490842909755504,1.308911735812823,0.16034109890460968
12153395.200000001,11.828751669989693,0.02968806454509092,11.544811566670736,0.02789020538330078,11.639823039372763,0.0421340254101504,1.272280067205429,0.1324219504992168
12403558.4,11.833348724577162,0.005008047888299928,11.476977229118347,0.05960865815480609,11.365636587142944,0.039096548333608594,1.2849191526571908,0.12978730599085486
12653721.600000001,11.703219731648764,0.021337783796160706,10.878598488294163,0.056831341523390755,11.478822072347006,0.05678967728659992,1.2790123373270035,0.1687749077876408
12903884.8,11.810363940703562,0.05531677397865847,11.550578077634176,0.02712690830230713,11.66746523645189,0.049763269735593973,1.311484877879803,0.1366811990737915
13154048.0,11.800716956456503,0.030502287629264446,11.501492540041607,0.006164272626240752,11.681742244296602,0.03917737280556774,1.32403897245725,0.12612626949946082
13404211.200000001,11.84788907898797,0.02224314494125062,11.557138442993164,0.04305696487426757,11.619554996490479,0.03172662167006689,1.3099126865466435,0.12784235179424283
13654374.4,11.73361505402459,0.0337449942334001,11.589136322339376,0.036922574043273926,11.630304521984522,0.04567905019600327,1.2895284742116928,0.10499543448289227
13904537.600000001,11.846486702943459,0.026798253818296605,11.611378523019644,0.03331221066988377,11.652587915078188,0.028195820073864925,1.2792572287412791,0.13034047071750343
14154700.8,11.84160327911377,0.020879536380193364,11.585019667943318,0.03210290273030569,11.638610601425171,0.037975229781607986,1.281948412458102,0.11514247953891754
14404864.0,11.876806921429102,0.021830036341126752,11.551512718200684,0.00440200169881244,11.715751700931127,0.009821653230760159,1.2807951519886653,0.12816326320171356
14655027.200000001,11.874290784200033,0.009860078440614345,11.490018407503765,0.02663203080495169,11.614155875311958,0.022263645260524594,1.304195875922839,0.12442116439342497
14905190.4,11.847301138771904,0.02252944318534846,11.550185600916546,0.026766856511433623,11.647345304489136,0.03519937810729496,1.3214982946713765,0.15685364603996277
15155353.600000001,11.874777549352402,0.013883907352474993,11.52320278607882,0.0010270705589876528,11.615351090064415,0.03367105302673521,1.3116972354742198,0.12875895316784203
15405516.8,11.843500402238634,0.054398280925497755,11.614630619684855,0.02628707885742187,11.619554042816162,0.012625054942443537,1.330730085571607,0.15701541801293695
15655680.0,11.874208450317383,0.03770733989687102,11.581805070241291,0.016198078791300752,11.647604995303682,0.03247625453579834,1.309775486588478,0.10983008642991375
15905843.200000001,11.838803874121773,0.04237063116309812,11.570154945055643,0.057261824607849114,11.732429689831202,0.048511587214838905,1.3027540842692056,0.14363001783688864
16156006.4,11.887411885791353,0.06164680535620621,11.527419845263164,0.030281106630961393,11.675080378850302,0.0067352705985828645,1.3247258464495342,0.13173836469650269
16406169.600000001,11.822331893138397,0.026350426310431652,11.45218225625845,0.012545218834509873,11.712723805354193,0.015899474303284478,1.3239002594581017,0.1621734912578876
16656332.8,11.914037068684896,0.02129537733442401,11.573100566864014,0.009763240814208984,11.71864202287462,0.018562345372632304,1.3028331845998764,0.1220433165629704
16906496.0,11.90579099125332,0.019628455388788785,11.528900146484375,0.1227138837178554,11.66473576757643,0.02038430519867144,1.3086491773525872,0.13635057707627618
17156659.200000003,11.84325517548455,0.02393726101771989,11.511022686958313,0.03784525394439697,11.65587698088752,0.06520819487239395,1.2995788554350534,0.10686015089352928
17406822.4,11.846471077356583,0.02350904999475515,11.49115224679311,0.016461094220479033,11.647233115302193,0.07025369046402105,1.298047579251803,0.10639063211587761
17656985.6,11.871321784125433,0.040515689622155994,11.515473952660194,0.03843931051401039,11.610111187665892,0.05041559403567257,1.2985452661911647,0.11980365216732025
17907148.8,11.770879957411024,0.02515390166275167,11.519341905911762,0.0948414405186968,11.681753926806982,0.04146555524129565,1.267995908856392,0.1052360783020656
18157312.0,11.90343565411038,0.01983963021461742,11.542949914932251,0.044406890869140625,11.646852334340414,0.04832600473785557,1.3183445682128272,0.10591349502404535
18407475.200000003,11.894712130228678,0.060683266482751845,11.460302631060284,0.02918024857838919,11.634430487950643,0.032421617311093553,1.2980074932177863,0.09647503991921745
18657638.4,11.888137475038185,0.02475973621705067,11.559090773264568,0.07380048433939644,11.695495420032076,0.021985985910241833,1.2696557228381817,0.11185908317565918
18907801.6,11.887376308441162,0.02309041817685404,11.529879680046669,0.011004851414607051,11.679070081466284,0.049627997941252854,1.2684862464666367,0.10033337771892546
19157964.8,11.8558718363444,0.01555824245549683,11.59402306874593,0.005762020746867158,11.74531857172648,0.02573815083289904,1.2517893463373184,0.054563795526822334
19408128.0,11.90501610438029,0.025998476942272895,11.538108348846436,0.04648995399475098,11.64015950096978,0.02865382399841374,1.2443322589000068,0.03267163534959161
19658291.200000003,11.892748991648356,0.0376958651708829,11.623265624046326,0.03583387533823589,11.66951929198371,0.03996163531920683,1.2312921484311423,0.007190962632497189
19908454.4,11.857105206220579,0.05621946991940609,11.541693250338238,0.06426171461741159,11.683553245332506,0.02862082630155622,1.2183067156718328,0.006118123347942594
20158617.6,11.889344612757364,0.012368743624054247,11.52868204850417,0.005798193124624262,11.7160212687957,0.020022473728965658,1.2054650833209357,0.025390808780988094
20408780.8,11.879750569661459,0.01462770684873484,11.551219304402668,0.034744183222453096,11.625761614905464,0.03499486302832793,1.1903186738491058,0.0371038019657135
20658944.0,11.847789102130465,0.004470972998584969,11.43656587600708,0.01054199536641498,11.636492331822714,0.033752014179415334,1.1896643042564392,0.0352511008580525
20909107.200000003,11.917284672076883,0.017033633652689662,11.569838285446167,0.015775442123413086,11.690773566563925,0.03458644026849484,1.1546695874287534,0.052924706385685805
21159270.4,11.828693469365438,0.055607113515397474,11.545217355092365,0.04281385739644339,11.697815179824829,0.04174016956373994,1.1501037726799648,0.0793858617544174
21409433.6,11.923696200052897,0.03535999469134851,11.642357129317062,0.0006143496586732411,11.651509407239082,0.033958885192520015,1.1230551153421402,0.10877409080664323
21659596.8,11.900118827819824,0.04941714732010736,11.546076019605,0.06302527586619089,11.650097052256266,0.03822433100002894,1.1251922150452933,0.11093677083651221
21909760.0,11.88024928834703,0.011299491796578817,11.51451579729716,0.025413990020751953,11.714213344785902,0.0005622606559922367,1.0935023650527,0.11540256688992184
22159923.200000003,11.895599267421625,0.02549522603072955,11.55263614654541,0.035109361012777285,11.662986410988701,0.03086005118899694,1.0884860799862788,0.1130518959118769
22410086.4,11.917522536383736,0.05897227049651584,11.586394588152569,0.0030188957850141303,11.68376957045661,0.050103011894061814,1.1089766050378482,0.10176650434732437
22660249.6,11.969342470169067,0.023071682370513494,11.635189569913424,0.02117890578049852,11.644462145291842,0.03525783367739308,1.1106852193673453,0.08152677615483606
22910412.8,11.9153553114997,0.008319513802725014,11.514871040980022,0.011850198109944364,11.593503925535414,0.06023227455269987,1.0996979773044586,0.07987510164578748
23160576.0,11.893578502866957,0.03739613224286211,11.537522832552591,0.0248335599899292,11.730278280046251,0.034971029300177515,1.1192415952682495,0.09881543119748425
23410739.200000003,11.830111992664825,0.03419754916469932,11.49595073858897,0.006323536237080596,11.67851323551602,0.05103322131460222,1.1108449193147514,0.11323313071177558
23660902.4,11.916515403323702,0.04353715555611176,11.580597798029583,0.001167138417561553,11.680428319507174,0.04102670261125108,1.0978342692057292,0.09445315599441528
23911065.6,11.873400370279947,0.03977553140209486,11.521078476539024,0.04844951629638671,11.657303369962252,0.02099720286283807,1.1230049605170884,0.09456242372592293
24161228.800000004,11.958033826616074,0.034570064087568214,11.506474057833355,0.08116050561269095,11.67831179830763,0.00455395756747898,1.112363907198111,0.0904142831762632
24411392.0,11.939108652946276,0.033798394305234195,11.525229334831238,0.00645601749420166,11.688761976030138,0.033176968876762324,1.1254368607814496,0.0784624402339642
24661555.200000003,11.86604242854648,0.04485474052552802,11.506352066993713,0.08299966653188129,11.685092528661093,0.05520617322425156,1.1116159185767174,0.0751224930087726
24911718.4,11.850787666108873,0.017435160269444073,11.418262958526611,0.01777219772338867,11.508469449149239,0.030330218468143596,1.1087066556016605,0.07452265173196793
25161881.6,11.78763704829746,0.02663896565744328,11.029846925001877,0.06308306180513856,11.51751097654685,0.043858551011622,1.0594827830791473,0.0767609377702077
25412044.800000004,11.898273388544718,0.01617981799750403,11.479623715082806,0.05494753519694039,11.614697959687975,0.022306844041882205,1.125856727361679,0.046700725952784294
25662208.0,11.867007280007385,0.037697229622174915,11.56576971213023,0.013774355252583526,11.617316140068901,0.0012126038626899375,1.137959049298213,0.03434834113487828
25912371.200000003,11.870796971850924,0.033159518826777264,11.564400990804035,0.014363447825114228,11.612151066462198,0.02940820655946791,1.1741911123196282,0.007286792000134823
26162534.4,11.907227118810018,0.03536778627064595,11.560010313987732,0.03405996163686176,11.644354290432402,0.017172874356315312,1.2302873233954112,0.04129788279533386
26412697.6,11.825604703691269,0.08061429018626673,11.548335295457107,0.0520508839533873,11.561472159165604,0.018349058747775735,1.2515101631482441,0.03502917289733886
26662860.800000004,11.841282893449831,0.0334387646457927,11.576159516970318,0.0774798790613813,11.64629210366143,0.0457661313868728,1.2506910287416897,0.026016382070688123
26913024.0,11.870899809731378,0.05338129346428552,11.6121080716451,0.011040290196736356,11.59832837846544,0.07249829432918582,1.2728573630253475,0.07877086102962494
27163187.200000003,11.821307261784872,0.022541202709207533,11.524051427841187,0.01262688636779785,11.64113031493293,0.04345261794143921,1.3059297253688178,0.11528581877549493
27413350.4,11.947630643844604,0.02925960301413007,11.467565655708313,0.017001271247863766,11.59657753838433,0.03929774845053781,1.2657795151074729,0.09041447440783179
27663513.6,11.914061519834732,0.006263954154298938,11.501313613011288,0.018808108109694462,11.632751415937376,0.06855895704219257,1.2784069130818048,0.11868069072564447
27913676.800000004,11.910303727174416,0.07564249047239728,11.550130327542623,0.0255511999130249,11.644905381732515,0.06360202685905413,1.3116382360458374,0.12077181155865002
28163840.0,11.922164784537422,0.03994775982766345,11.538452625274658,0.017481486002603575,11.670568386713663,0.043457536812084356,1.294714962442716,0.09921177724997199
28414003.200000003,11.902838283114962,0.03641990828947542,11.513196349143982,0.008491555849710508,11.663316037919786,0.034370915796202266,1.3050861557324729,0.10123474399248754
28664166.4,11.898201439115736,0.03805927563945829,11.469998677571615,0.024816989898681637,11.60802025265164,0.1560533489366443,1.3256239195664725,0.09792066613833104
