x,Img+Prioception (Cartesian Increment)_mean,Img+Prioception (Cartesian Increment)_stderr,Img+Prioception (Velocity)_mean,Img+Prioception (Velocity)_stderr,Img+Prioception (Position Increment)_mean,Img+Prioception (Position Increment)_stderr,Img+Prioception (Torque)_mean,Img+Prioception (Torque)_stderr
145561.6,4594.902270507812,469.78682181837047,1096.7668137770431,86.18785510040242,2532.035543002733,440.3204400561254,3821.00657618596,489.53678977303764
395724.80000000005,3880.925266520182,295.2619898880385,2080.943888346354,116.91021025009425,3576.5618530273437,301.0709124915365,2923.2147440592444,276.7281813165867
645888.0,3233.8234924316407,281.8731279486237,2355.5700907389323,150.96209009629916,3024.626053873698,126.46081146742618,3549.17803141276,270.42371920511624
896051.2000000001,2592.6141459147134,286.5039300949287,2229.7167215983072,159.45582574061808,2864.108260091146,244.74055969987347,4024.333878580729,273.0007235475675
1146214.4,2159.7678297776447,140.39204789873602,1829.4278635660808,236.82488927984522,2380.4285807291667,260.4311115129964,3813.5284423828125,131.1510545174773
1396377.6,2018.3892985026039,72.38445742051796,1592.793340594952,357.82369346079093,2177.5822246844955,365.2266839383216,3496.1660907451924,184.80620718032853
1646540.8000000003,2000.06787109375,65.2936634532241,1502.159346516927,402.60515268350775,2163.4967976888024,472.42672945573435,3227.7420084635423,256.1720787403216
1896704.0,1949.0841857910157,70.24234046339777,1332.511161295573,311.67782481471227,1990.4462300618488,409.7287022596343,2975.8960896809895,289.99482312806737
2146867.2,1992.8211954752605,27.892040356228875,1035.3474975585937,178.67637648337006,1657.7846974690758,272.13644083778297,2845.5704427083333,263.0296744513572
2397030.4000000004,1963.5820425180289,28.44282696215936,909.2229532877603,121.18244343793283,1350.1610463460288,114.44730659776151,2710.9282796223956,201.93556588275118
2647193.6,1985.396193440755,50.820659310491266,864.6039635291467,90.12034658099431,1167.3190542367788,29.225916861717607,2719.498576472356,192.12574625317762
2897356.8000000003,2035.4539571126302,89.07498374449017,823.9260274251303,59.67951876968694,1119.534033203125,27.05949630647297,2652.510870361328,188.58475134641088
3147520.0,1993.9046244303386,63.38108174143148,830.6800089518231,44.66352070484194,1056.8990529378257,16.781814290957996,2663.8915791829427,195.15068205198088
3397683.2,1982.3142841045672,82.88445577003053,792.4200032552083,43.366610591385935,1033.0280161539715,33.279137440055855,2539.0403238932295,119.80533417777453
3647846.4000000004,1946.5393880208333,78.66368565952156,779.9603739420572,49.57529142636251,1064.0225575764975,31.031086247802182,2526.81802368164,135.396663745809
3898009.6,1992.997764078776,37.074547285571334,768.1182589017428,37.24729064852296,1065.6554255558895,7.42681771997459,2569.1294696514424,169.7201893122811
4148172.8000000003,1988.9751729329425,46.70536330375727,739.9584126790365,37.10896467587024,1042.679825846354,26.418512242400038,2651.531368001302,190.35821055999588
4398336.0,1987.8935750325522,53.02516376982736,765.2200190226237,43.53333052571951,1056.1864929199216,10.150177660031515,2625.1665893554687,188.89517047599446
4648499.2,2065.6073786808893,73.64407625803388,733.0668390909831,41.732230936489046,1079.0864522298177,9.234100118397253,2567.378936767578,217.262274044246
4898662.4,1959.5271850585937,39.764476137671714,723.2723490397135,27.451996764913442,1080.5716522216796,14.630010698647254,2621.2578694661456,180.74008269547477
5148825.6,2063.2243774414064,43.12586659710328,701.3320612980768,31.983852472419144,1065.608012507512,29.58149807855403,2573.182339242788,130.74473426509033
5398988.800000001,1993.7393330891925,34.87572858678022,727.2741312662761,34.74295979833835,1053.3940500895183,18.84178356709845,2619.380212402344,136.99560042037723
5649152.0,2046.5447875976563,40.6058924127992,689.7104288736979,32.68555919631125,1052.420721435547,26.63730885621541,2711.504992675781,137.8703302951412
5899315.200000001,1992.6774564302882,34.53241989359349,668.643776957194,31.803651525405236,1059.8338877360025,26.3167484990422,2777.020548502604,208.83349486573175
6149478.4,2045.295137532552,60.05820072429738,689.5083353678385,38.73199262635971,1069.5562784830731,28.451573038520408,2746.336596679688,266.78540147788334
6399641.6,1996.34887491862,27.08099454191165,670.2191814716045,33.46109664418655,1073.5495333158055,25.25639089280147,2693.218761268029,191.8595800595039
6649804.800000001,1955.3889200846352,54.218935859339275,669.2399475097657,32.854812993814356,1074.148560587565,24.82799461726771,2673.214766438802,194.61959904720473
6899968.0,2012.7184213491587,34.85515201591741,674.9129964192708,27.890463945919066,1080.8918060302735,11.601943027582479,2756.2475423177084,214.64352427824304
7150131.200000001,1990.3584899902344,24.52200667603187,679.6672749837239,22.01604095395085,1084.7955057779948,18.02563524859909,2700.9399780273443,212.83864179721894
7400294.4,1995.534765625,38.53290666397128,694.1146464029948,30.99438374627889,1071.726826985677,27.957714453156004,2673.8571044921873,207.98046632383648
7650457.6,2064.746421305338,34.28044055940299,692.3970501239482,36.78075587398376,1057.512830528846,9.896930896151899,2688.6707444411054,216.0575230973706
7900620.800000001,1999.2984334309895,32.89565401421204,712.6105926513671,45.190300936916735,1079.0088928222654,19.681076607329878,2822.4458170572916,276.29584585600674
8150784.0,1987.7459491436298,21.412664148996676,697.3015004475911,31.850765797959582,1058.4343790690104,19.360485848792933,2915.9018025716146,276.2618981604916
8400947.200000001,1977.9627156575523,29.171029136159493,716.3529418945313,35.97312527171317,1085.993724568685,29.265244020702845,2894.6772705078124,260.32742906616255
8651110.4,1969.4350341796876,28.235343598410456,712.2184468587241,37.36440287305179,1057.9609344482421,26.658249486456285,2892.3337931315104,280.44063168537286
8901273.600000001,2038.1410685221356,52.89703057426604,705.4413489708534,31.170165476650382,1081.5548771784856,19.26707992547583,2950.17822641226,389.63326057158594
9151436.8,2055.7221883138022,26.320760894221415,721.0107432047527,32.284629397832994,1054.848565673828,20.453903820135977,2975.1483520507813,440.71003900265777
9401600.0,2081.3851431039666,43.225818279136384,702.0229970296224,23.926315037442063,1063.1543182373048,20.098959625995146,2846.2747762044273,339.20904066577646
9651763.2,2076.2826416015623,41.339441910169924,685.1621917724609,14.27779478562005,1045.3489949544273,13.378730951522307,2861.327465820312,300.502885045478
9901926.4,2045.7410542805987,21.44268817058563,716.669952392578,14.857106399019322,1052.4915822347007,17.64755952403287,2897.5800374348955,301.8943291415167
10152089.600000001,2068.745743815104,23.171094661301233,719.0615966796875,21.620647684662,1044.5334059495192,20.357831650345364,2822.7424091045673,269.0420350739348
10402252.8,2101.7129338191103,24.49976594386632,695.5270151774089,20.497009990617876,1057.3571431477862,24.148999097843852,2745.668619791667,228.90427388636374
10652416.0,2128.01674601237,42.687205701729894,710.976909383138,22.688326092325035,1045.8369689941405,25.036945390212658,2779.0966512044274,286.9947496042128
10902579.2,2178.2116149902345,59.49661077117789,701.7681406656901,32.11412119142898,1058.1197224934897,28.864829312456127,2767.705057779948,301.81663759933275
11152742.4,2167.1856363932293,73.29105645254846,709.4212748209635,34.61973310036257,1047.6144266764325,33.91236950898738,2701.767980957031,244.9889771677903
11402905.600000001,2205.5412577311195,60.5825689386949,713.6276301457332,37.92094607224635,1058.028271484375,46.36010411798796,2784.604458383413,270.12022879774514
11653068.8,2187.996775465745,50.31084690504856,738.2589782714844,35.77434680621168,1064.726062011719,29.453251578998483,2905.6105509440104,314.38079370698586
11903232.0,2191.740614827474,55.20767158183356,737.144443766276,24.632211383073514,1071.7644093831382,25.797921085519352,2991.5187540690104,382.8036596492422
12153395.200000001,2130.889027913411,52.931060781162614,747.6386199951172,32.7069793017003,1061.9099945068358,12.013066146554767,2869.054561360677,318.4483693542414
12403558.4,2235.062414550781,79.58444304867534,735.1391774495441,46.14040966333782,1104.4666239420574,22.37689999218757,2816.348445638021,273.9017254338638
12653721.600000001,2256.572043863932,53.717173586593866,750.2964111328126,41.23387890216471,1104.6154794546276,30.499382697516527,2756.760133713942,243.50536838738003
12903884.8,2206.456135441707,71.25975053029434,716.801601155599,25.10700221639656,1078.398013305664,23.066774069253807,2804.890275065104,201.80284665518627
13154048.0,2152.7580423990885,59.170535532936555,720.5656016031901,28.299429967343183,1067.695834350586,25.528244940161663,2863.8886311848955,205.24914355934044
13404211.200000001,2197.5983235677086,80.86630095154077,724.7585754394531,26.602248066882414,1054.7355082194013,26.430679436393397,2806.7353230794265,186.54469403490964
13654374.4,2156.224226888021,86.84816663765032,739.6619344075522,25.069870792258328,1062.8122090657553,6.443305407402934,2873.861124674479,203.8702856203925
13904537.600000001,2237.1614877554084,49.32419958034078,735.6904907226562,21.846901017657544,1084.7359515850362,11.933969009685574,2911.7915114182692,176.06425442503712
14154700.8,2199.820245361328,79.17816684780092,743.0628885904948,18.87112741278198,1090.067958577474,12.909409270603007,2734.6954589843745,164.89958553768645
14404864.0,2214.744630940755,107.57387294725102,730.8643056233724,20.806565304666325,1093.2752909342448,15.227973654578589,2723.8366577148436,157.2514748294308
14655027.200000001,2218.8377360026043,101.21436144650681,719.4571451822918,29.082766617100823,1078.587247721354,17.131166482422312,2733.5779378255206,125.96850070471719
14905190.4,2171.2587544759112,46.312547194479485,715.5067474365235,15.34483700805286,1109.6333404541015,30.039420839001643,2877.001928710938,168.36110476791342
15155353.600000001,2240.68408578726,62.96407668648462,720.7790367713342,21.584245828927795,1080.0923649714543,16.48658791569934,2932.7697453425485,192.83657412059264
15405516.8,2206.280141194661,43.26240847472009,731.559174601237,23.528815740332963,1083.4525014241538,24.482284984893653,2958.951322428385,196.86112633829208
15655680.0,2240.357568359375,62.62230631369248,727.7929656982421,15.846258832755376,1079.865165201823,18.461366661134313,3048.572176106771,202.71116488336986
15905843.200000001,2257.4213684082033,90.2109900969018,730.9345835367839,26.94687277204332,1105.8979044596356,21.047785800447507,2990.148514811198,185.6193173989786
16156006.4,2219.8398620605467,59.43992366645178,718.403896077474,27.019902171998076,1073.732974243164,24.353698617756045,3049.2750935872396,265.7540431143865
16406169.600000001,2240.912768554688,80.01369356456112,708.0185208834134,25.115746337951574,1109.804032076322,26.1187753105859,2976.071536959135,212.53897081697508
16656332.8,2225.6798970540367,59.89313960052211,709.861844889323,25.67340868396619,1118.7052663167317,22.514847726137102,2904.049473063151,217.78388233349625
16906496.0,2161.865018717448,86.86566514669155,732.5966349283855,10.906766239673514,1085.1067555745444,23.203158129403477,2891.52666015625,211.23881858244968
17156659.200000003,2188.6988891601563,95.82909740953635,722.9826161702474,6.002667685047848,1077.0401479085285,17.0203239183326,2951.782149251302,251.48634446730463
17406822.4,2316.0987811748796,75.80106394599686,748.2440622965495,24.5148084911299,1090.4753041585286,20.3658632391636,2879.9885050455728,189.76289508679858
17656985.6,2239.18427327474,68.9859976425814,761.8825307992788,16.147427264586153,1079.8793053260217,18.582080281759993,2886.1213115985574,197.9498790844079
17907148.8,2255.4548095703126,61.214679655414706,775.9931345621745,27.307570270066602,1084.121977742513,16.257429881350337,2943.2411499023438,193.24701664099433
18157312.0,2210.1068094889324,89.57064482713406,744.5295247395834,26.701238975340065,1124.7520477294922,23.859585717513344,2848.221948242188,183.1800423896351
18407475.200000003,2251.147764078776,73.1329431490209,751.8647084554036,26.3917942290823,1151.568516031901,58.7033893130314,2831.2884745279944,177.16430325461624
18657638.4,2312.7199068509613,92.67580533668479,724.3689860026041,18.24373966211131,1159.8760660807293,43.21005554742422,2926.5980631510415,202.7280018304421
18907801.6,2307.251843261719,54.638043526316544,724.0662729116586,17.078329919895207,1125.267472017728,26.29914913358522,2999.5802283653843,243.48472236192512
19157964.8,2335.815771484375,34.32636234459267,740.5882904052735,29.70501272966244,1155.144322713216,35.479140483164365,3059.5259806315107,245.26080323984928
19408128.0,2288.7844665527346,47.412318086841964,737.595171101888,12.28603349824701,1138.2391805013021,34.45181384413276,2997.406819661458,223.77309051176647
19658291.200000003,2352.88369547526,61.68492283588687,754.7201853434245,29.545585458050375,1142.7497283935547,29.298280389877785,3006.9349975585933,247.34079203087794
19908454.4,2352.53413273738,54.88878530120212,744.2508982340495,31.23023654514477,1139.8203928629557,20.617239521098046,2880.3331013997395,224.58678978007669
20158617.6,2285.9921040852864,34.568447372722424,755.9574096679687,13.400442763462944,1133.4789334810696,16.500882785868157,2914.1994854266827,288.8413861572082
20408780.8,2329.8998860677084,12.05500257217185,753.3592447916667,8.57993092275902,1152.0129201253253,39.37938152517523,3026.47392578125,322.00045389652115
20658944.0,2332.2102172851564,33.39165115701869,777.5945393880208,14.504017650569018,1138.996635945638,34.60367333670173,3112.9355834960943,397.2794544903903
20909107.200000003,2243.675728665866,57.71923783877823,757.5981842041015,18.54227752766044,1138.1929677327473,20.01660993032125,3081.67260945638,297.38861895628395
21159270.4,2318.8700581868493,34.14862840053576,760.2676615397136,18.013052556939943,1147.1842295328775,21.90247216817845,3063.8715372721354,287.97274822796777
21409433.6,2277.1218851725257,52.58484934471706,742.8728186974158,12.347243974284932,1155.4113290640023,21.042650092765466,3201.3448148287257,342.23604441232294
21659596.8,2330.281587727865,38.90036987174385,751.9658681233725,12.061193236742444,1180.4419850667318,41.471542361214496,3136.830655924479,286.1763828792415
21909760.0,2295.211173502604,51.21392869632831,743.999457804362,18.478903965594057,1178.9040079752604,38.57405258609814,3112.362455240886,281.0291140483745
22159923.200000003,2378.9299560546874,57.85504475559708,740.9009979248046,26.223013812415612,1154.9303843180337,29.658085484126463,3266.5083048502606,389.5871722166947
22410086.4,2300.4902770996096,55.74209107878289,725.8030253092448,16.403240239535368,1197.077482096354,25.158222902348275,3209.609208170573,395.9550395005561
22660249.6,2349.0278137207033,66.23428379913993,736.1841871995193,12.220172704654516,1222.8644305889425,22.00385927840906,3188.187685922476,391.55935853432794
22910412.8,2304.81015625,57.33712197819066,725.1088338216146,15.22652409994909,1192.8374216715495,16.285837132838314,3339.0930318196615,435.1683251091298
23160576.0,2257.8140380859377,51.966398175612575,736.7788848876953,29.07369866666639,1176.6478942871095,24.25313643196705,3424.0931864420572,471.4237662801327
23410739.200000003,2307.909949669471,43.52371206197552,754.2179514567058,13.72219875894594,1173.1608591715494,37.976807621394784,3406.1856486002603,446.2256263870119
23660902.4,2254.723980712891,20.969662850767822,742.2014119466146,21.28529812399096,1162.0944722493489,27.94561131170807,3364.4463745117187,446.7843640041373
23911065.6,2305.5407491048177,62.064199439568036,736.0880878155048,28.250475712137217,1166.8333524263821,18.42991571489269,3224.072032752404,346.04137868495235
24161228.800000004,2273.058233642578,39.76901687360536,765.9213846842448,21.415607804203116,1162.2098724365235,20.164842097317415,3046.4919230143228,319.99048083350846
24411392.0,2313.356787109375,54.49239786200397,742.0505249023438,17.80821001200669,1166.5334075927733,31.61468974785532,2976.142386881511,275.20806023863366
24661555.200000003,2296.0212544759115,78.71733877527565,760.6902028401694,11.392000838727098,1220.859390258789,45.67703617858115,3034.266735839844,252.02086959775568
24911718.4,2299.2072916666666,61.78314963525073,768.7346221923827,12.865030375603986,1192.0772013346354,28.653718213067005,3032.1934855143227,238.76783797120223
25161881.6,2337.519407145182,88.8733288615793,772.1387901893029,12.054859221251542,1202.8481173001803,19.338126978333985,3133.7530987079326,222.61524141207045
25412044.800000004,2306.961541748047,85.15200023833421,738.3043223063152,20.834162291703436,1197.9121805826821,24.461680732505446,3126.5531616210938,262.4449833048597
25662208.0,2308.3453312800475,47.560460587396484,754.2808614095053,13.150142279935055,1198.6351786295572,51.45128432869115,3257.9948282877604,288.8310595139764
25912371.200000003,2351.5097920735675,81.93501303732721,766.6090861002604,7.9013656011272655,1201.5590698242188,48.22289542081173,3422.8918701171874,303.9039481779161
26162534.4,2328.412099202474,61.253825275779626,757.0040517171224,15.729975611492847,1184.1180592854819,42.791134912498705,3274.5644083658854,309.7969215314349
26412697.6,2387.6733256022135,46.99206716233536,780.0400625375601,29.001015489088076,1170.1253981370191,48.556548192691274,3123.641932091346,304.40390513844085
26662860.800000004,2377.3626746544473,41.22909116144171,778.5222961425782,27.040039866574208,1200.9510569254558,34.350922589121005,3008.910375976562,252.52565207388122
26913024.0,2302.967242431641,64.74151060950011,753.5252207438151,16.476377446994412,1165.2770090738932,26.840369279278285,3002.543078613281,268.99483047318273
27163187.200000003,2370.001619466146,67.55369914386266,733.5585978190104,16.540004747848226,1194.577919514974,35.04706879084395,2850.605769856771,200.6229956924373
27413350.4,2338.9068115234377,69.8656094519381,752.5845774332682,16.658184347181574,1177.8915506998696,26.64087869988064,2845.6421284993494,196.80148783578608
27663513.6,2337.5664469401045,65.18727205771728,741.404915677584,12.420166040343984,1179.4628464918871,27.895883863292692,2930.509016301082,235.50068490359916
27913676.800000004,2380.984652944712,79.40207073056747,749.7607045491536,19.625471373420883,1187.0291473388672,27.550369731433314,2838.7129231770837,206.52601162082158
28163840.0,2379.1601399739584,63.66927039881957,751.356224568685,12.5095743826777,1168.6559051513673,16.770649661565237,2723.7993611653646,184.12998780793066
28414003.200000003,2369.0430908203125,66.37303479672602,764.6968973795574,20.762384846657042,1185.2579620361328,39.559374937729935,2734.068916829427,166.52893897232738
28664166.4,2397.7969502766928,56.54007804946378,755.2008148193361,23.982924552498446,1157.1080393473308,7.6871375647281965,2806.9119628906246,200.66853720107076
28914329.6,2371.1724039713545,63.475089943714266,734.7862680288462,18.168860607191128,1177.3101909930888,20.127726106696812,2816.8246525691106,210.33393095159443
29164492.800000004,2374.0653470552884,47.44649864609332,765.8194396972656,12.847512979216054,1162.2848164876302,18.288546856778567,2768.910968017578,208.04018872534547
29414656.0,2388.237158203125,67.92740003704967,753.1592641194661,17.379609709482608,1178.9459798177083,18.3095140359787,2784.3366170247396,239.31948075092953
29664819.200000003,2366.9420674641924,86.4918850390381,747.4035797119142,8.482260453654176,1171.9973083496093,29.974247279251337,2846.4116923014326,248.04441482812396
29914982.4,2462.988232421875,90.36792990983183,747.7165690104166,12.55058100221729,1163.5355499267578,23.446901488187926,2753.5461568196615,218.29305334111575
30165145.6,2418.3507098858177,87.979838061752,748.3820350060097,9.155249336641166,1176.679068697416,18.452449103962408,2856.825456355168,248.24015195802173
