x,Img (Cartesian Increment)_mean,Img (Cartesian Increment)_stderr,Img (Velocity)_mean,Img (Velocity)_stderr,Img (Position Increment)_mean,Img (Position Increment)_stderr,Img (Torque)_mean,Img (Torque)_stderr
20480.0,1.0,0.0,0.0,0.0,0.0,0.0,1.0,0.0
104006.9449081803,0.8175624368851492,0.0,0.0,0.0,0.0,0.0,0.8100681133789566,0.0
187533.8898163606,0.5671669707906651,0.0,0.0,0.0,0.0,0.0,0.5417712842026081,0.0
271060.83472454094,0.40209115642901694,0.0,0.0,0.0,0.0,0.0,0.3656850507751174,0.0
354587.7796327212,0.2840994282919335,0.0,0.0,0.0,0.0,0.0,0.24596798088385372,0.0
438114.7245409015,0.20335861199899,0.0,0.0,0.0,0.0,0.0,0.16405285750261084,0.0
521641.6694490818,0.14914244596622195,0.0,0.0,0.0,0.0,0.0,0.11202595042098883,0.0
605168.6143572622,0.11773053671864624,0.0,0.0,0.0,0.0,0.0,0.07967425678443228,0.0
688695.5592654424,0.0952766570469293,0.0,0.0,0.0,0.0,0.0,0.05728800544542007,0.0
772222.5041736227,0.07527509792313561,0.0,0.0,0.0,0.0,0.0,0.04422251497725434,0.0
855749.449081803,0.06570843057110712,0.0,0.0,0.0,0.0,0.0,0.04437381261526432,0.0
939276.3939899834,0.049014469226689325,0.0,0.0,0.0,0.0,0.0,0.04313893589469305,0.0
1022803.3388981636,0.042966703334352575,0.0,0.0,0.0,0.0,0.0,0.044322972016947196,0.0
1106330.283806344,0.03640361291517692,0.0,0.0,0.0,0.0,0.0,0.04380440723698901,0.0
1189857.2287145243,0.031053534028797607,0.0,0.0,0.0,0.0,0.0,0.03601757324612069,0.0
1273384.1736227046,0.028298747587400693,0.0,0.0,0.0,0.0,0.0,0.034964535176056744,0.0
1356911.1185308849,0.02441789765600222,0.0,0.0,0.0,0.0,0.0,0.04258816051989307,0.0
1440438.0634390651,0.019138882354628108,0.0,0.0,0.0,0.0,0.0,0.04721764758721915,0.0
1523965.0083472454,0.02187276884196605,0.0,0.0,0.0,0.0,0.0,0.049737638841103576,0.0
1607491.9532554257,0.020527956428832143,0.0,0.0,0.0,0.0,0.0,0.05142295630177419,0.0
1691018.898163606,0.018815757574863964,0.0,0.0,0.0,0.0,0.0,0.062009430000083035,0.0
1774545.8430717865,0.020139092246996726,0.0,0.0,0.0,0.0,0.0,0.07044249916674133,0.0
1858072.7879799667,0.016354546928816865,0.0,0.0,0.0,0.0,0.0,0.06853643324408541,0.0
1941599.732888147,0.01594090794924704,0.0,0.0,0.0,0.0009310517321109075,0.0,0.05892846022906816,0.0
2025126.6777963273,0.010651938618709878,0.0,0.0,0.0,0.0006060436091583769,0.0,0.06257701752171317,0.0
2108653.622704508,0.014965282798047196,0.0,0.0,0.0,0.0003944631824501728,0.0,0.06021584303927215,0.0
2192180.567612688,0.012520261398215674,0.0,0.0,0.0,0.00025673268643837914,0.0,0.05746372087314724,0.0
2275707.5125208683,0.010827707603791712,0.0,0.0,0.0,0.00016708116554739472,0.0,0.041159890439443646,0.0
2359234.4574290486,0.01501749185569305,0.0,0.0,0.0,0.00010879791063450244,0.0,0.04273025584590023,0.0
2442761.402337229,0.009774112324247314,0.0,0.0,0.0,7.085497175907648e-05,0.0,0.035716975284038596,0.0
2526288.347245409,0.006361052371559418,0.0,0.0,0.0,4.614196089759668e-05,0.0,0.03264975183873249,0.0
2609815.2921535894,0.006732361039958125,0.0,0.0,0.0,0.0003071752804670713,0.0,0.030843568513451977,0.0
2693342.2370617697,0.009523995786918447,0.0,0.0,0.0,0.0007230071181354865,0.0,0.03292830232490225,0.0
2776869.18196995,0.013847910589525121,0.0,0.0,0.0,0.0004707538873904955,0.0,0.03162679906403486,0.0
2860396.1268781302,0.011538892055097914,0.0,0.0,0.0,0.0003064923940798842,0.0,0.030693457966626914,0.0
2943923.0717863105,0.010014781774200787,0.0,0.0,0.0,0.0001995352070099837,0.0,0.024984196029647403,0.0
3027450.016694491,0.01397449665469501,0.0,0.0,0.0,0.00012989517287271207,0.0,0.026199155937942958,0.0
3110976.961602671,0.016485980838968156,0.0,0.0,0.0,8.455508198521284e-05,0.0,0.031833711284292646,0.0
3194503.9065108513,0.013167131988330858,0.0,0.0,0.0,5.503756592201224e-05,0.0,0.03048185256753448,0.0
3278030.8514190316,0.008809950062150523,0.0,0.0,0.0,3.582210376936854e-05,0.0,0.029656035513381834,0.0
3361557.796327212,0.015476043341365256,0.0,0.0,0.0,2.331389711852578e-05,0.0,0.02318097913174148,0.0
3445084.7412353926,0.015532911059651433,0.0,0.0,0.0,1.5174227351556373e-05,0.0,0.02973140910060694,0.0
3528611.686143573,0.02106749711898618,0.0,0.0,0.0,9.882593840489723e-06,0.0,0.029139517543128386,0.0
3612138.631051753,0.024202356734740783,0.0,0.0,0.0,6.435932325560469e-06,0.0,0.027300102182495973,0.0
3695665.5759599335,0.029297625137720794,0.0,0.0,0.0,0.000883306270136411,0.0,0.028192103615236552,0.0
3779192.5208681137,0.033177346002819526,0.0,0.0,0.0,0.0005751790762192013,0.0,0.0188757128849841,0.0
3862719.465776294,0.03897694773958518,0.0,0.0,0.0,0.00037451559813370957,0.0,0.014836035880600262,0.0
3946246.4106844743,0.05369533281170916,0.0,0.0,0.0,0.0010171975416001303,0.0,0.017934454954358754,0.0
4029773.3555926546,0.05409336290194769,0.0,0.0,0.0,0.0006622486916373189,0.0,0.02894415725027764,0.0
4113300.300500835,0.06787780387340353,0.0,0.0,0.0,0.0004311325454150228,0.0,0.025890765260485345,0.0
4196827.245409016,0.08320729804638749,0.0,0.0,0.0,0.0010361599362141971,0.0,0.022016448086658518,0.0
4280354.190317196,0.09105253628989717,0.0,0.0,0.0,0.0015073086717780763,0.0,0.0205150516732539,0.0
4363881.135225376,0.12220828901251775,0.0,0.0,0.0,0.0017246993559375976,0.0,0.022672978922732692,0.0
4447408.080133556,0.15487036775033902,0.0,0.0,0.0,0.0011225209992242698,0.0,0.021589446881682996,0.0
4530935.025041737,0.18183433662258278,0.0,0.0,0.0,0.0016338844133152372,0.0,0.022126899905153534,0.0
4614461.969949917,0.21049240093857066,0.0,0.0,0.0,0.0010637500464730457,0.0,0.024881293564869608,0.0
4697988.914858097,0.2491044018357089,0.0,0.0,0.0,0.0006927791105124891,0.0,0.025742219239771078,0.0
4781515.8597662775,0.29818699830935935,0.0,0.0,0.0,0.0004511552341718636,0.0,0.02586675459046595,0.0
4865042.804674458,0.33630079180835704,0.0,0.0,0.0,0.0011703481227305478,0.0,0.02420834045148422,0.0
4948569.749582638,0.3592062521945125,0.0,0.0,0.0,0.0007620741661369782,0.0,0.0226178971077099,0.0
5032096.694490818,0.38591585593938466,0.0,0.0,0.0,0.001359536108550867,0.0,0.019414152976653404,0.0
5115623.639398999,0.40798448135356563,0.0,0.0,0.0,0.000885161214054457,0.0,0.01437386852699538,0.0
5199150.584307179,0.4099454508887296,0.0,0.0,0.0,0.0005762728295401095,0.0,0.012023086371285291,0.0
5282677.529215359,0.4214415483997091,0.0,0.0,0.0,0.0003751523287082986,0.0,0.010500837570361793,0.0
5366204.474123539,0.4247283274773841,0.0,0.0,0.0,0.0002442083286000917,0.0,0.011435168545404543,0.0
5449731.41903172,0.44821508643637603,0.0,0.0,0.0,0.00015895939252497614,0.0,0.010839893736434408,0.0
5533258.3639399,0.47267650897315877,0.0,0.0,0.0,0.00010346283700002953,0.0,0.007706464682626941,0.0
5616785.30884808,0.49703609261358894,0.0,0.0,0.0,6.733712850791707e-05,0.0,0.010463696469872158,0.0
5700312.2537562605,0.5112108655652536,0.0,0.0,0.0,4.38224212460013e-05,0.0,0.011895396774825108,0.0
5783839.198664441,0.5454176531746104,0.0,0.0,0.0,2.853920974262314e-05,0.0,0.01540817176763559,0.0
5867366.143572621,0.5663149314677928,0.0,0.0,0.0,1.8586084787217565e-05,0.0,0.015039748463842952,0.0
5950893.088480801,0.5901560852847784,0.0,0.0,0.0,1.2103466464275083e-05,0.0,0.01675878765520539,0.0
6034420.033388982,0.5966463407789213,0.0,0.0,0.0,7.881468631244778e-06,0.0,0.018270989625743937,0.0
6117946.978297162,0.606263755714243,0.0,0.0,0.0,5.131917697714361e-06,0.0,0.020116045793570875,0.0
6201473.923205342,0.6315978739382443,0.0,0.0,0.0,3.341388590546311e-06,0.0,0.023061665808506552,0.0
6285000.868113522,0.6371203881276292,0.0,0.0,0.0,2.1754478152301442e-06,0.0,0.015561505739518056,0.0
6368527.813021703,0.6725170373339283,0.0,0.0,0.0,1.4162643990466995e-06,0.0,0.018162767536770822,0.0
6452054.757929883,0.6593155983051382,0.0,0.0,0.0,9.219631929063589e-07,0.0,0.015403598383409593,0.0
6535581.702838063,0.6641756495105166,0.0,0.0,0.0,6.001447172517649e-07,0.0,0.014581257908462117,0.0
6619108.6477462435,0.6694828465531474,0.0,0.0,0.0,3.906349746046756e-07,0.0,0.012146947178809757,0.0
6702635.592654424,0.6811194787730157,0.0,0.0,0.0,2.5424859164464794e-07,0.0,0.010540709813850522,0.0
6786162.537562605,0.6767264625506405,0.0,0.0,0.0,1.654694543096115e-07,0.0,0.009473583480261736,0.0
6869689.482470785,0.6849443931912464,0.0,0.0,0.0,1.0771137337352703e-07,0.0,0.008757420211062596,0.0
6953216.427378966,0.6937942846380567,0.0,0.0,0.0,7.014910827333345e-08,0.0,0.008269721053401208,0.0
7036743.372287146,0.6921545973244954,0.0,0.0,0.0,4.5683445494897686e-08,0.0,0.015580263456137427,0.0
7120270.317195326,0.7021925928744281,0.0,0.0,0.0,2.9748926255995115e-08,0.0,0.014438349182435053,0.0
7203797.262103506,0.7218379702204787,0.0,0.0,0.0,1.937131570774102e-08,0.0,0.011900654346200917,0.0
7287324.207011687,0.7290006972780397,0.0,0.0,0.0,1.2613103185783804e-08,0.0,0.012713905297342424,0.0
7370851.151919867,0.7293372050630987,0.0,0.0,0.0,0.0008582385769881199,0.0,0.012463113717878239,0.0
7454378.096828047,0.736496647855551,0.0,0.0,0.0,0.0005587527998058957,0.0,0.01543707781043835,0.0
7537905.041736227,0.7277323992915323,0.0,0.0,0.0,0.00036375185815485007,0.0,0.01750417994706424,0.0
7621431.986644408,0.7434322120241832,0.0,0.0,0.0,0.00023679042945866182,0.0,0.01736250481992921,0.0
7704958.931552588,0.7496591271995724,0.0,0.0,0.0,0.00015413315402342274,0.0,0.020915818682025637,0.0
7788485.876460768,0.7353360477619074,0.0,0.0,0.0,0.00010032300918576286,0.0,0.01806115697592445,0.0
7872012.821368949,0.7355092825730776,0.0,0.0,0.0,6.529458387259497e-05,0.0,0.012880976204621052,0.0
7955539.766277129,0.74709116395331,0.0,0.0,0.0,4.249378709461961e-05,0.0,0.01463373375442655,0.0
8039066.711185309,0.7552304171114695,0.0,0.0,0.0,2.7669163515730906e-05,0.0,0.010587382693604664,0.0
8122593.656093489,0.7398504719240424,0.0,0.0,0.0,1.8019694806259288e-05,0.0,0.01138674915829918,0.0
8206120.60100167,0.749047052178944,0.0,0.0,0.0,0.0008056429384583939,0.0,0.012039638057095861,0.0
8289647.54590985,0.7280841009819088,0.0,0.0,0.0,0.0005246208904978212,0.0,0.021231559641365375,0.0
8373174.49081803,0.7029380438239653,0.0,0.0,0.0,0.00034160466453685595,0.0,0.022771884985746827,0.0
8456701.43572621,0.6995218743840178,0.0,0.0,0.0,0.00022242154976494872,0.0,0.01998801934486514,0.0
8540228.380634392,0.7103693274731189,0.0,0.0,0.0,0.00014481195073539946,0.0,0.018192808051041048,0.0
8623755.325542571,0.7055328123861904,0.0,0.0,0.0,9.42770577837975e-05,0.0,0.017120135376069805,0.0
8707282.270450752,0.7167113028692165,0.0,0.0,0.0,0.0008195822230041125,0.0,0.016671164821723535,0.0
8790809.215358932,0.7358257497820402,0.0,0.0,0.0,0.0005335081662746219,0.0,0.013463534257822362,0.0
8874336.160267113,0.7472289594766693,0.0,0.0,0.0,0.00034726614288338415,0.0,0.01298537697423325,0.0
8957863.105175292,0.7531031252409218,0.0,0.0,0.0,0.00022602486084312187,0.0,0.013621807962529967,0.0
9041390.050083473,0.7500293655755319,0.0,0.0,0.0,0.00014710313474387276,0.0,0.01149952598284297,0.0
9124916.994991653,0.7525105722288957,0.0,0.0,0.0,9.573955057797222e-05,0.0,0.010125468000118269,0.0
9208443.939899834,0.7592480328761028,0.0,0.0,0.0,6.235300051711676e-05,0.0,0.012068480480548734,0.0
9291970.884808013,0.7724946382821309,0.0,0.0,0.0,4.060687005460702e-05,0.0,0.013567340331830744,0.0
9375497.829716194,0.7735526249025845,0.0,0.0,0.0,2.6443412717923772e-05,0.0,0.014122066747383265,0.0
9459024.774624374,0.7731192504876132,0.0,0.0,0.0,1.7219120109220176e-05,0.0,0.011886052271316129,0.0
9542551.719532555,0.7804381655084235,0.0,0.0,0.0,1.1211907311755554e-05,0.0,0.009581861767560332,0.0
9626078.664440734,0.7818958429758401,0.0,0.0,0.0,7.299998182414734e-06,0.0,0.008919859003302893,0.0
9709605.609348916,0.7740951062431687,0.0,0.0,0.0,4.7526991556946e-06,0.0,0.00849514180502581,0.0
9793132.554257095,0.7802061614027921,0.0,0.0,0.0,3.094081981513312e-06,0.0,0.012317180298591805,0.0
9876659.499165276,0.787965614069249,0.0,0.0,0.0,2.0141732306205586e-06,0.0,0.011904686171485289,0.0
9960186.444073455,0.7891159188111219,0.0,0.0,0.0,1.3110972751270024e-06,0.0,0.011227999336876252,0.0
10043713.388981637,0.8053117312293183,0.0,0.0,0.0,8.53386313379726e-07,0.0,0.01321800390150313,0.0
10127240.333889816,0.7935288783270648,0.0,0.0,0.0,5.554291343543531e-07,0.0,0.011746546814431085,0.0
10210767.278797997,0.7819460481382084,0.0,0.0,0.0,3.614792847270258e-07,0.0,0.008857474027245503,0.0
10294294.223706177,0.7857291843499009,0.0,0.0,0.0,2.3533108053985505e-07,0.0,0.019582720143900792,0.0
10377821.168614358,0.786564333217855,0.0,0.0,0.0,1.5326256952714477e-07,0.0,0.01400151007454409,0.0
10461348.113522537,0.7922717075174385,0.0,0.0,0.0,9.980883006724363e-08,0.0,0.011663128888801569,0.0
10544875.058430718,0.8011466286518958,0.0,0.0,0.0,6.499463611245543e-08,0.0,0.012961715704681319,0.0
10628402.003338898,0.8119471624339413,0.0,0.0,0.0,4.232153289435354e-08,0.0,0.01663986242812933,0.0
10711928.948247079,0.8031528005792138,0.0,0.0,0.0,2.7556255791676784e-08,0.0,0.02817858240540253,0.0
10795455.89315526,0.785269461416269,0.0,0.0,0.0,0.0004758109189657384,0.0,0.019330084320895086,0.0
10878982.83806344,0.7724650543573528,0.0,0.0,0.0,0.0006889714313694842,0.0,0.02241079364589939,0.0
10962509.78297162,0.7819173322334455,0.0,0.0,0.0,0.00044852073042475995,0.0,0.022489328793728402,0.0
11046036.7278798,0.7721495547263939,0.0,0.0,0.0,0.0002919692926320445,0.0,0.019862516328346996,0.0
11129563.672787981,0.7787183680937465,0.0,0.0,0.0,0.00019004863833865841,0.0,0.021476216255705175,0.0
11213090.61769616,0.7815529228195545,0.0,0.0,0.0,0.00012369861642299782,0.0,0.019116257144379943,0.0
11296617.562604342,0.7934564515107825,0.0,0.0,0.0,8.050761736031641e-05,0.0,0.012438430749829225,0.0
11380144.507512521,0.7897601787999645,0.0,0.0,0.0,5.239389720773914e-05,0.0,0.013149040594586539,0.0
11463671.452420702,0.7923724115170673,0.0,0.0,0.0,3.411958619599807e-05,0.0,0.008554524148978787,0.0
11547198.397328882,0.7932927519112334,0.0,0.0,0.0,0.000821131874972798,0.0,0.008050615046024504,0.0
11630725.342237063,0.7882482020912559,0.0,0.0,0.0,0.0005347323070864657,0.0,0.011893255981540708,0.0
11714252.287145242,0.7894914488091382,0.0,0.0,0.0,0.00034820538609725115,0.0,0.01360461600617548,0.0
11797779.232053423,0.7939929590663505,0.0,0.0,0.0,0.00022673038330843886,0.0,0.018078070263358156,0.0
11881306.176961603,0.7832201608696939,0.0,0.0,0.0,0.00014762460791707693,0.0,0.024129695550120723,0.0
11964833.121869784,0.7859571545946398,0.0,0.0,0.0,9.611301498377413e-05,0.0,0.021132207075050854,0.0
12048360.066777963,0.7866282746699796,0.0,0.0,0.0,6.257194516430038e-05,0.0,0.01597629246987392,0.0
12131887.011686144,0.7891323614549457,0.0,0.0,0.0,4.073340503984192e-05,0.0,0.014442821401664967,0.0
12215413.956594324,0.8008197591094479,0.0,0.0,0.0,2.6515203434130933e-05,0.0,0.015651122641545726,0.0
12298940.901502505,0.809464459292321,0.0,0.0,0.0,1.7258854724965917e-05,0.0,0.01650216162646077,0.0
12382467.846410684,0.8102803233184543,0.0,0.0,0.0,1.1233143525227516e-05,0.0,0.016226483684802864,0.0
12465994.791318865,0.8200759930276996,0.0,0.0,0.0,7.3107598925521504e-06,0.0,0.015814291109768463,0.0
12549521.736227045,0.851545239701401,0.0,0.0,0.0,4.758651937855951e-06,0.0,0.014229106724826144,0.0
12633048.681135226,0.8226397293666726,0.0,0.0,0.0,0.0016973979688569298,0.0,0.02779690660813229,0.0
12716575.626043405,0.8059765925428845,0.0,0.0,0.0,0.0011054065034876452,0.0,0.039365919300658185,0.0
12800102.570951587,0.7996067668866357,0.0,0.0,0.0,0.0015983544166438513,0.0,0.040598405982711104,0.0
12883629.515859766,0.7993627229252765,0.0,0.0,0.0,0.001040788775612528,0.0,0.04773429595861765,0.0
12967156.460767947,0.7925288806788825,0.0,0.0,0.0,0.0010633265943116395,0.0,0.06141044550572431,0.0
13050683.405676126,0.8023542322897766,0.0,0.0,0.0,0.0032273556389434527,0.0,0.07237964754873356,0.0
13134210.350584308,0.7946402694350275,0.0,0.0,0.0,0.005730313264011866,0.0,0.07312257216051996,0.0
13217737.295492487,0.8001569537165815,0.0,0.0,0.0,0.003730488196522624,0.0,0.07201612054850874,0.0
13301264.240400668,0.7991472575126528,0.0,0.0,0.0,0.0031079004093983805,0.0,0.07135404304410782,0.0
13384791.185308848,0.7905718892056217,0.0,0.0,0.0,0.0038361014865778598,0.0,0.0592364849914076,0.0
13468318.130217029,0.7782724046251004,0.0,0.0,0.0,0.0024968730255395914,0.0,0.06878125130227078,0.0
13551845.07512521,0.7834633264675676,0.0,0.0,0.0,0.0016250808799090283,0.0,0.0702199574783163,0.0
13635372.02003339,0.7749252812759541,0.0,0.0,0.0,0.0010576091655883403,0.0,0.07549682509559315,0.0
13718898.96494157,0.7695596293473361,0.0,0.0,0.0,0.0006886100475225507,0.0,0.07160929168146972,0.0
13802425.90984975,0.7726061032439939,0.0,0.0,0.0,0.00044846275659150397,0.0,0.055341900947408,0.0
13885952.854757931,0.7810246049368048,0.0,0.0,0.0,0.00029204878326437176,0.0,0.06315316666929684,0.0
13969479.79966611,0.8009394592069313,0.0,0.0,0.0,0.0014305785418351888,0.0,0.05352896226972627,0.0
14053006.744574292,0.8108848977059234,0.0,0.0,0.0,0.001461761967862452,0.0,0.05612738998282129,0.0
14136533.689482471,0.8053355232093635,0.0,0.0,0.0,0.0009517687797600702,0.0,0.04180972430903424,0.0
14220060.634390652,0.8041331356352782,0.0,0.0,0.0,0.0006196703968113105,0.0,0.04030116017165107,0.0
14303587.579298832,0.8036585402834915,0.0,0.0,0.0,0.0009643611224552987,0.0,0.04440510563757514,0.0
14387114.524207013,0.7954996794718591,0.0,0.0,0.0,0.000945381036170597,0.0,0.04434942056119107,0.0
14470641.469115192,0.797747958827057,0.0,0.0,0.0,0.0006153996782406923,0.0,0.046738002816100535,0.0
14554168.414023373,0.7984438803504876,0.0,0.0,0.0,0.0004005719207601705,0.0,0.0430750528973928,0.0
14637695.358931553,0.7939899505692003,0.0,0.0,0.0,0.00026072109189432716,0.0,0.03304798410926586,0.0
14721222.303839734,0.7917194070644527,0.0,0.0,0.0,0.00016968513964976613,0.0,0.04640498853122074,0.0
14804749.248747913,0.7885567940812334,0.0,0.0,0.0,0.00011043100800727121,0.0,0.0375943080973298,0.0
14888276.193656094,0.7953222475708532,0.0,0.0,0.0,7.192148071163415e-05,0.0,0.047470299839960296,0.0
14971803.138564274,0.7873313267980119,0.0,0.00014858096495943217,0.0,4.683843907542863e-05,0.0,0.04316553306609759,0.0
15055330.083472455,0.7753895319605886,0.0,0.0007128135066049371,0.0,0.0037461275209687245,0.0,0.03597750208747659,0.0
15138857.028380634,0.7730060936488289,0.0,0.004742861309631582,0.0,0.0034098208151350957,0.0,0.039554703929765456,0.0
15222383.973288815,0.7790421438764507,0.0,0.004107634423853838,0.0,0.002220249655420206,0.0,0.03386371424416521,0.0
15305910.918196995,0.7520990361042806,0.0,0.005375215303859852,0.0,0.0014455955449512777,0.0,0.034677916039792214,0.0
15389437.863105176,0.7596835127512059,0.0,0.006624147262828435,0.0,0.001709381141173462,0.0,0.03273769689396273,0.0
15472964.808013355,0.7539856174390117,0.0,0.005251962138141193,0.0,0.0020539070529264464,0.0,0.027388643030191066,0.0
15556491.752921537,0.7599810413500834,0.0,0.008803897794200048,0.0,0.0013370498773564391,0.0,0.01900966973892172,0.0
15640018.697829716,0.7508132194907079,0.0,0.013415466183066091,0.0,0.0008703372103945495,0.0,0.018163010159224634,0.0
15723545.642737897,0.764246600451516,0.0,0.01946493976767146,0.0,0.003139789114316911,0.0,0.02027571117308567,0.0
15807072.587646076,0.7727075383304025,0.0,0.02000899581887757,0.0,0.00204355048112446,0.0,0.02267085333812701,0.0
15890599.532554258,0.7711602884309653,0.0,0.04735547428524735,0.0,0.00319090553119379,0.0,0.02522948612491882,0.0
15974126.477462437,0.7630610498891749,0.0,0.05210208698756965,0.0,0.004621067287351509,0.0,0.027042710111040563,0.0
16057653.422370618,0.7679536976697657,0.0,0.06854490066031116,0.0,0.005602425611023681,0.0,0.021322024725790645,0.0
16141180.3672788,0.7713762490024579,0.0,0.06724169075530803,0.0,0.0036484685379423497,0.0,0.020704469392396594,0.0
16224707.312186979,0.7730543427021103,0.0,0.09556432942925412,0.0,0.0033508181354589767,0.0,0.018910036779640167,0.0
16308234.25709516,0.7770221259034285,0.0,0.13477942593584685,0.0,0.004020372015957021,0.0,0.016196460143036752,0.0
