x,Img (Cartesian Increment)_mean,Img (Cartesian Increment)_stderr,Img (Velocity)_mean,Img (Velocity)_stderr,Img (Position Increment)_mean,Img (Position Increment)_stderr,Img (Torque)_mean,Img (Torque)_stderr
95590.4,2.14349270761013,0.08685026785284285,1.7136154890060424,0.10423725513710493,1.6955254927277565,0.05916831047799677,0.7330269107764418,0.07230723124494394
245811.19999999998,3.4663290704999654,0.049816107967780535,3.0340633801051546,0.03221986106941933,2.7889101982116697,0.043652660061950406,1.7537771259035382,0.02278486368522173
396032.0,4.033725297451019,0.08208208366234702,3.5452964646475658,0.058433458066120346,3.2687849112919403,0.02984233928518987,1.897956088611058,0.023500440694914037
546252.7999999999,4.148319033214024,0.045441755963043076,3.9977690815925597,0.02069654776446225,3.7821776390075685,0.0736319719584271,2.0650409877300264,0.0503868054144998
696473.6,4.250888313565936,0.018699279666510957,4.145119612557548,0.05166815626751997,4.177776840754918,0.07914350977680411,2.1686197349003384,0.07824336364482644
846694.3999999999,4.655887961387634,0.1630032038342549,4.341275365012033,0.09005697314863528,4.24382175036839,0.05705482085742959,2.240138622692653,0.08073476463595296
996915.2,5.855957004002162,0.23447681645400653,4.295841407775879,0.14935503021870805,4.466189324855804,0.1102419231887942,2.304160365462303,0.059093722678443525
1147136.0,6.775138909476143,0.29399896587107127,4.343722193581717,0.1172459233141281,4.68229844229562,0.1092412587111838,2.40964298248291,0.08464222699044537
1297356.7999999998,7.469669914245605,0.37712548467109924,4.536523015158517,0.10365621357891901,4.791581426348005,0.10693261242170979,2.5675402368818014,0.1284113776014725
1447577.6,8.268044117518834,0.36580278523144016,4.461617469787598,0.17934226168588321,5.094476747512817,0.2430672788783113,2.5632373452186585,0.08783655757803176
1597798.4,8.772704519544329,0.3273661043511066,4.5022721699305945,0.14010650672825253,5.394755826677594,0.4492640204712553,2.559889725276402,0.07645513627840687
1748019.1999999997,9.39634268283844,0.26780123074997997,4.588055556161064,0.05527638278662684,5.629680510929653,0.5382150863376439,2.7214026927947996,0.16307377589753816
1898240.0,9.763276454380582,0.2622220799509212,4.53319902420044,0.06906752458382227,5.891742646694183,0.6499998041477514,2.6735100388526916,0.09719823492644035
2048460.7999999998,9.926649584089008,0.2447579050016475,4.619611998966762,0.0638839795949568,6.113596766335624,0.6170923461621535,2.768037939071655,0.16145598181546092
2198681.5999999996,10.177130484580994,0.20780404673653363,4.683530112675259,0.06840109151705195,6.48866240637643,0.6372562988765429,2.798816074643816,0.19173977420837912
2348902.4,10.290667942592076,0.16236886704501108,4.6603121876716616,0.099189161659709,7.302299630641937,0.6535716286116926,2.867903333902359,0.14685828995377956
2499123.1999999997,10.444868850708009,0.1349974755400126,4.624654933384486,0.20381978631897588,7.6890778132847375,0.6531373555204562,2.8953849451882503,0.1377938389513982
2649344.0,10.533638882637025,0.0960651528549935,5.329581165313721,0.5120258541968975,8.289337253570556,0.36957210992319006,2.9422776903424945,0.1156608817214651
2799564.8,10.67768859863281,0.07309800951371902,5.863858675956726,0.7656775475020817,8.554023444652557,0.26964589498596964,3.0276646673679353,0.0891437055743699
2949785.5999999996,10.536600276402064,0.11185159306096659,6.1889794758387975,0.981960497722343,8.887339319501603,0.2534736506402434,2.9879411288670132,0.10116020572443937
3100006.4,10.697450399398804,0.06996756506598999,6.344328689575195,1.0170800489556802,9.091809463500976,0.18573274574107715,3.059661817550659,0.14785970489857356
3250227.1999999997,10.8036561693464,0.06195733525531954,6.4778114557266235,1.1555697476600908,9.339526963233947,0.1972120107129482,3.0913554608821867,0.13651452967528757
3400448.0,10.785541180201939,0.08436147798691024,6.683795806339807,1.2145752028847563,9.41633791242327,0.11393753230892985,3.08278181212289,0.14513085249643004
3550668.8,10.865296626091004,0.08606860387280897,6.745542267390659,1.260923870929353,9.602138137817382,0.08953371731068707,3.2783370767320905,0.1250652022329771
3700889.5999999996,10.980919946943013,0.040876085009593,6.820124135698592,1.2382525939792024,9.77491615840367,0.11364717486780827,3.3103143692016603,0.18888847814767903
3851110.3999999994,10.9762177331107,0.07693020798656144,7.1228362917900085,1.2323603264996688,9.805974292755128,0.07385667958933376,3.2421774744987486,0.1941315366772864
4001331.1999999997,10.96323266029358,0.09807703346376585,7.5213651520865294,1.026320966623315,9.909803472246441,0.0719633488091534,3.3503649779728484,0.19633056144057284
4151551.9999999995,10.84488958631243,0.062221164078105844,8.116483347756523,0.8737119967919262,10.020177786690848,0.0655139755306047,3.4867837224687848,0.2036691762480348
4301772.799999999,10.970019885471888,0.05119593717260162,8.533171904087066,0.7534500877132417,10.082913565635682,0.0480612283199154,3.4857140362262724,0.12404208303683169
4451993.6,10.887556505203246,0.07913594377998098,9.031148597172328,0.628599974797593,10.192348017011371,0.04338956044265398,3.3925094740731376,0.1189489260891011
4602214.4,10.87951262337821,0.06436428320006261,9.090795571463449,0.7099325356556456,10.25904197692871,0.048448406856114574,3.264940200533186,0.13327160190634477
4752435.199999999,10.93529725755964,0.04706796365758985,9.365786290168762,0.6392721835696324,10.294814825057983,0.04525823117762981,3.406412249803543,0.15242375762344132
4902656.0,10.968076968193055,0.09115545295320504,9.48799501146589,0.7588736983903633,10.186467524937223,0.06140109182273434,3.5294166292463034,0.16795755114870162
5052876.799999999,11.000981249128069,0.025459389442163725,9.63407564163208,0.7481264016344521,10.276559148515975,0.05169317559862774,3.5138028689793175,0.1789240349783145
5203097.6,11.001464762006487,0.06980365798304418,9.64435054063797,0.8163066400647242,10.415087580680847,0.07650856040406505,3.6016363203525543,0.14458827314457565
5353318.4,10.985753393173217,0.03601703427308109,9.663904408046179,0.7786316170451107,10.433507646833148,0.03404429877679488,3.6571516241346087,0.1638238442909839
5503539.199999999,11.092026547023227,0.03672387402260211,9.741544655391149,0.8170593690104443,10.43909718649728,0.04016945055426561,3.6952938216073172,0.1405603590980308
5653760.0,11.025216729300363,0.036166659204390834,9.757434415817261,0.8739783915773915,10.511425018310547,0.030298201042038477,3.6198935866355897,0.1653230737065379
5803980.799999999,11.120015954971313,0.03541179285457785,9.712759753635952,0.869860837878142,10.474522508893694,0.05655006640069009,3.538173396246774,0.20542647584705678
5954201.6,11.107802254813057,0.052564938165680766,9.706999329158238,0.8279761201993616,10.56109425680978,0.059768298597894086,3.69773359979902,0.19598054605510798
6104422.4,11.191160447256905,0.028894652136342788,9.723628556728363,0.9260539901894356,10.5043466091156,0.04570219132198891,3.721716594696045,0.13525963913914352
6254643.199999999,11.114994955062866,0.04331696355951975,9.79836428506034,0.841033011231997,10.588975388663155,0.0721917490533456,3.8451696395874024,0.14229582458052775
6404864.0,11.146051706586565,0.03750770504964072,9.859320218222482,0.8173153607510314,10.56048709324428,0.03663587903737638,3.7959666456495014,0.11305289779118301
6555084.799999999,11.11025540488107,0.04746207400656147,9.81362326145172,0.8488344718173422,10.678826308250427,0.03894106648973016,3.894600635766983,0.11785817143674011
6705305.6,11.094196081161499,0.0256708187310404,9.922621604374477,0.7599823781472922,10.639088821411132,0.06734212289005273,4.000149066107614,0.18005858859063914
6855526.399999999,11.086822319030762,0.01816414264374816,10.13918365750994,0.5117912711519476,10.639802142551968,0.04671878675637842,4.033586038861956,0.14699197221891225
7005747.199999999,11.079060799734933,0.040323638073660205,10.326469945907593,0.3994778489158117,10.672302556037902,0.039759196274586066,4.077722525596618,0.13768421481326779
7155968.0,11.120487928390503,0.03802866692822355,10.496676308768137,0.3283855881955452,10.557640266418458,0.06124977448326631,4.021169185638427,0.13287235011960727
7306188.799999999,11.211061804635184,0.024325487217279125,10.489161818368093,0.23977252970395563,10.618997246878488,0.02287902953430819,4.025744594846453,0.15340819366881733
7456409.6,11.161886405944824,0.028733463305456383,10.522153091430663,0.1974753904053408,10.527276011875696,0.05105732447912082,4.156758553641183,0.18818004432877608
7606630.399999999,11.284993433952332,0.05116311527630457,9.868165123462678,0.165200683132725,10.284419441223145,0.04315610856353894,4.0667179226875305,0.1726738321373541
7756851.199999999,11.090270505632674,0.024706232576410116,10.566725185939243,0.18779247238881927,10.599850027901786,0.05214204128971926,3.9381101676395955,0.16425137534882853
7907072.0,11.14408689226423,0.041593259947107664,10.647171347481864,0.15707748764689444,10.661479486737932,0.050805508052448364,3.914925643375942,0.17494793525135482
8057292.799999999,11.108036470413207,0.02641622122498237,10.745681738853454,0.12153868741680614,10.601536011695861,0.05539992485577361,3.8861558020114897,0.17022036091759313
8207513.6,11.144067655290877,0.018266908899456185,10.7316442489624,0.13218227241801675,10.645089503696985,0.07668692215281679,3.991565581730434,0.23757173732703557
8357734.3999999985,11.03331653050014,0.07553518226190872,10.72445583343506,0.07520012313533463,10.668842015947614,0.06964718289594499,4.0080842018127445,0.1905018008041129
8507955.2,11.219442582130432,0.05662606873774759,10.738551449775695,0.10957078286501437,10.693770956993102,0.052365738691928884,3.8420881807804106,0.1842172710818746
8658176.0,11.074671718052455,0.0618636684025994,10.84945171901158,0.05991721595955302,10.672231074741909,0.03536352173912864,3.828225612640381,0.18817698825938844
8808396.799999999,11.017219597952707,0.030234487851506352,10.795428439549038,0.056594292820425926,10.674064472743442,0.04805580148686515,3.8199839932577953,0.1661288178067422
8958617.6,11.047792792320251,0.04553105221659835,10.86290237903595,0.08554377273973328,10.719081044197083,0.055779970591632845,3.7708343744277952,0.1861651567160078
9108838.399999999,11.068004144941057,0.04527655810757964,10.888783754621233,0.04768221218290725,10.667004667009627,0.07525829144692446,3.948601130076818,0.283862684605751
9259059.2,11.088570458548409,0.04265223803608413,10.90439954485212,0.05526785031054182,10.712826592581612,0.03895842435785384,4.009675822939192,0.3257049320889829
9409280.0,11.12528748512268,0.02380516742248165,10.89808030128479,0.08302435018685049,10.73046703338623,0.041012383305875186,3.9454370498657227,0.34061824316563727
9559500.799999999,11.161887931823731,0.045894089894925064,10.9466185433524,0.05906140712748696,10.657490757533484,0.06044667265550088,3.9637997559138705,0.4245619374186449
9709721.6,11.114354923793247,0.02295934948485583,10.895339175633021,0.0774626456657375,10.673895100184849,0.06775989336120303,4.00578533581325,0.43091073275213476
9859942.399999999,11.107326984405518,0.03677194086951932,10.85124442577362,0.059650554880235566,10.710226011276244,0.033669825522621336,4.039489352703095,0.4212223845282268
10010163.2,11.077277101789203,0.026762802478322273,10.928437178475516,0.08291246193606211,10.677521705627443,0.04767044515067703,4.08815757887704,0.35380208457053264
10160384.0,11.041228457859585,0.046804999851309606,10.944703701564244,0.06730241195817839,10.672830527169364,0.05617945778256334,4.100823777062552,0.39046576660859744
10310604.799999999,11.159353065490723,0.03689219183983307,10.939041757583619,0.042997506206097325,10.71784508228302,0.06347337198892482,4.1483439087867735,0.41542453982475286
10460825.6,11.087921851021903,0.05677076464927123,10.860261126926968,0.10030696503847897,10.718184007917133,0.055482441931054116,4.043951014110021,0.46708212627052
10611046.399999999,11.152941840035576,0.018238927863844685,10.944418171473913,0.07606630365246952,10.711196654183524,0.07381857479067858,4.123990242821829,0.42930492843552154
10761267.2,11.110051918029786,0.07619734910125935,10.917347288131714,0.056363112847260796,10.744782423973083,0.08720728889847136,4.186034470796585,0.38766644192970867
10911488.0,11.12134873526437,0.03588695249888571,10.900505120413644,0.07725110751370189,10.732581520080567,0.06597587975811783,4.253073494774955,0.3920392025490232
11061708.799999999,11.210937118530273,0.027414663429205788,10.871108027866908,0.06112746910515458,10.740777451651436,0.05282708381816588,4.21048252241952,0.41424359239783365
11211929.6,11.213478231430054,0.04608905440150465,10.888830375671386,0.055331577395555755,10.7379853112357,0.08202732051121361,4.252685063225882,0.4147495989877764
11362150.399999999,11.129718399047851,0.04340583966622617,10.97595956325531,0.04003483937354895,10.714067459106445,0.028608569519444866,4.201290851831436,0.46713350742688853
11512371.2,11.158982631138391,0.033161604783875614,10.928769002641952,0.05536444345233564,10.648700523376466,0.09342361454233199,4.245236233302525,0.49894373010535276
11662592.0,11.101499581336975,0.03675167849709269,10.909437506539481,0.061043579213891565,10.718136760166711,0.07139652031738473,4.19142576626369,0.4865374957732968
11812812.799999999,11.14915270124163,0.055959470636498414,10.996086049079896,0.04002538015738958,10.754986667633057,0.05243655888061276,4.217561799287796,0.4966107431582005
11963033.6,11.225039073399135,0.026590038691312264,10.87209475381034,0.02675442271128812,10.784752001081193,0.03511310995067898,4.157253353936332,0.4600867469775647
12113254.399999999,11.093387937545776,0.052708676087762515,10.9666446685791,0.0419898207452018,10.783934920174733,0.0463110036523824,4.142279045922416,0.4185044029657819
12263475.2,11.12851927621024,0.029038622543748487,10.976959204673767,0.028743365459213858,10.764823532104492,0.02333558271902627,4.254541605710983,0.4049700773114444
12413696.0,11.07898804800851,0.04826028464782001,10.9855498450143,0.027705386783730912,10.770013046264648,0.06673275596943641,4.382351391656059,0.35273733983986216
12563916.799999999,11.165413331985473,0.05144610994278856,11.020953505379815,0.03318302649865854,10.776475415910994,0.02128529825601529,4.352858400344848,0.35251674537588
12714137.599999998,11.113324819292341,0.0172542183772041,10.945636916160584,0.049781662830354886,10.729920864105225,0.05324495612142629,4.260286110639572,0.37380557288684696
12864358.399999999,11.141204398018974,0.044407106791507014,10.991136714390345,0.021018827687863475,10.736064556666783,0.04405972123639035,4.2832472596849716,0.36238551803450536
13014579.2,11.188934874534606,0.05296210975236063,10.927338545663016,0.01747277238679477,10.837646157400949,0.026095434490976854,4.356303766795567,0.376596152620218
13164800.0,11.200828388759067,0.0364128384752885,10.987475991249084,0.042736704995783886,10.726178884506226,0.0508513051795463,4.216006845235825,0.3979127521004
13315020.799999999,11.11735199519566,0.04842841218050411,10.945213944571359,0.04757277957277794,10.74710420880999,0.04410323172965781,4.2235964570726665,0.41569427170809164
13465241.599999998,11.205228877067565,0.026466696784358913,10.911177335466657,0.03170516266292149,10.677528762817383,0.07341657095062433,4.361824669156755,0.36735496281822827
13615462.399999999,11.111740575517926,0.051206798493576726,10.979621481895446,0.04336456003119378,10.71162121295929,0.06277825349699669,4.2777647316455845,0.35724980820385577
13765683.2,11.104058510916573,0.04357426215218289,10.957110459463937,0.0324601883136573,10.704164096287318,0.08030149378566825,4.242015947614397,0.3026078811850827
13915904.0,11.155521774291993,0.033052217737348205,11.027718789236886,0.025669750075083313,10.71289245060512,0.037365811949977366,4.270072242191859,0.39174582502758853
14066124.799999999,11.13615253993443,0.033298009183839926,10.992427349090576,0.02871308397685181,10.721124148368835,0.07257774584422044,4.26520853638649,0.38821546503033283
14216345.599999998,11.17730505807059,0.04227218576778378,10.982103429521832,0.03742715628824235,10.684390013558524,0.030533439761764238,4.422637619291033,0.3669371322201838
14366566.399999999,11.131518745422364,0.05585735436600041,10.984155573163715,0.05246112880559143,10.706676483154297,0.06908538461693185,4.377965252740043,0.3997909396299634
14516787.2,11.133193833487374,0.06133934776201676,10.961562967300415,0.04257959548389025,10.794961524009704,0.028899777377506417,4.438194924592972,0.34809214239216923
14667008.0,11.155009841918945,0.05054903951170958,10.927210944039482,0.034185458039341955,10.791273253304619,0.05451354323630838,4.374478851045881,0.34739389599646225
14817228.799999999,11.127544832229614,0.06819557323430146,10.96460050855364,0.03680488019739757,10.804387283325195,0.04031067663287561,4.3916541167667935,0.39397210991953213
14967449.599999998,11.082861409868514,0.06464488375084598,10.909267861502512,0.010798118595155956,10.627866499764579,0.04707957764064928,4.398548970903669,0.3809324721175889
15117670.399999999,11.272943387712749,0.05230138681669846,10.324770259857178,0.03749517268962703,10.336994326114654,0.06444954586658629,4.345672762393951,0.3847472386278883
15267891.2,10.926087665557862,0.07120321643424471,10.904623331342425,0.033020702184207044,10.666531535557338,0.04611258678837311,4.1740362235478,0.38153969206370003
15418112.0,11.033244105747768,0.09254117720536686,10.996728324890135,0.04240197095400675,10.70056095123291,0.07861232233689067,4.056447069985526,0.37730312208536265
15568332.799999999,11.091887337820872,0.034143469029292904,11.03769109249115,0.039663149210576704,10.788547372817993,0.06905600581652865,4.081051826477051,0.3806449436932176
15718553.599999998,11.033816266059876,0.08420183874318452,11.014880262102398,0.030309329995320582,10.689224488394602,0.04187118477518131,4.18714553969247,0.36479265178773396
15868774.399999999,11.095016533987863,0.047255054346931134,11.027822004045756,0.031718930899868124,10.741602788652694,0.057810703177928906,4.0716937610081265,0.416958483422143
16018995.2,11.094035448346819,0.06137847359476098,11.05452299118042,0.03276371034962103,10.740289878845214,0.043522356569061046,3.9708985924720763,0.38867009146721526
16169216.0,11.152447581291199,0.035633355624897244,10.99065671648298,0.04367233399467894,10.778392710004534,0.05353932943090328,3.9621612616947717,0.4040159417630212
16319436.799999999,11.129905182974678,0.029851632406978024,10.984621402195522,0.014084287501412773,10.777187756129674,0.04414040079347417,3.969980927876064,0.43188491690502273
16469657.599999998,11.128263909476143,0.03316269495661453,10.993807721138001,0.036586141783742386,10.75871696472168,0.04660938968868985,3.9134827613830567,0.39862480240459836
16619878.399999999,11.090239143371582,0.026527259486501188,10.986267634800502,0.04773640451799188,10.80577517918178,0.0460244058276365,3.8598388399396626,0.409643945825754
16770099.2,11.069884490966796,0.03884509952116132,10.936906351361957,0.05649276254408074,10.819500650678362,0.04922480774367924,3.8668090615953714,0.42377445590951296
16920320.0,11.042376736232212,0.03255295798221141,10.968466353416442,0.0473229250822183,10.794024300575256,0.059736633523949915,3.9240579545497893,0.3692723490718355
17070540.799999997,11.098112320899963,0.06040315626896362,10.978835896083286,0.039843451415098166,10.795480237688338,0.07645727079753563,3.884935106549944,0.4059780721655342
17220761.6,11.043437058585031,0.05079575274880201,10.984939302716937,0.04107127895517396,10.71014633178711,0.038829029475217394,3.825678607395717,0.38518332548735607
17370982.4,11.091844967433385,0.036579928419838315,11.037794089317321,0.04094988958053047,10.694865083694458,0.04211932583825536,3.890967071056366,0.3966304333050571
17521203.199999996,11.133995175361633,0.02666663651490927,11.036829648699078,0.05448887092874099,10.87830194745745,0.03331880223554011,3.942069101333618,0.3858420259270027
